     time [s]   theta [rad]     psi [rad]     phi [rad]     q [rad/s]     r [rad/s]     p [rad/s]        pn [m]        pe [m]         h [m]       u [m/s]       v [m/s]       w [m/s]      Va [m/s]   alpha [rad]    beta [rad] delta_a [rad] delta_e [rad]       delta_t delta_r [rad]
0.0000 0.0733 0.0000 0.0000 0.0000 0.0000 0.0000 0.0000 0.0000 -0.0000 34.9061 -0.0000 2.5621 34.0220 0.1005 -0.0294 0.3491 0.0000 0.6031 0.0000
0.0100 0.0731 0.0006 0.0023 -0.0414 0.1157 0.4338 0.3503 0.0019 0.0000 34.9600 -0.0102 2.5508 34.0746 0.1001 -0.0296 0.3491 0.2042 0.6031 0.0000
0.0200 0.0721 0.0023 0.0087 -0.1512 0.2189 0.8134 0.7011 0.0038 0.0001 35.0145 -0.0479 2.5251 34.1271 0.0995 -0.0304 0.3491 0.1400 0.6031 0.0000
0.0300 0.0701 0.0049 0.0187 -0.2377 0.3101 1.1467 1.0524 0.0057 0.0001 35.0714 -0.1101 2.4622 34.1797 0.0979 -0.0318 0.3333 -0.0058 0.6031 0.0000
0.0400 0.0675 0.0083 0.0318 -0.2730 0.3824 1.4224 1.4042 0.0076 0.0002 35.1299 -0.1931 2.3712 34.2322 0.0956 -0.0337 0.2847 -0.1276 0.6031 0.0000
0.0500 0.0646 0.0122 0.0472 -0.2653 0.4219 1.6103 1.7566 0.0094 0.0004 35.1887 -0.2901 2.2708 34.2846 0.0931 -0.0360 0.2399 -0.1915 0.6031 0.0000
0.0600 0.0619 0.0164 0.0642 -0.2347 0.4329 1.7256 2.1095 0.0112 0.0007 35.2464 -0.3923 2.1763 34.3368 0.0908 -0.0383 0.2034 -0.2059 0.6031 0.0000
0.0700 0.0594 0.0205 0.0820 -0.1988 0.4220 1.7860 2.4629 0.0130 0.0011 35.3026 -0.4922 2.0954 34.3888 0.0889 -0.0405 0.1740 -0.1933 0.6031 0.0000
0.0800 0.0572 0.0244 0.1002 -0.1673 0.3950 1.8062 2.8168 0.0149 0.0017 35.3575 -0.5839 2.0294 34.4405 0.0875 -0.0424 0.1503 -0.1736 0.6031 0.0000
0.0900 0.0553 0.0280 0.1184 -0.1428 0.3564 1.7969 3.1713 0.0169 0.0024 35.4114 -0.6630 1.9763 34.4920 0.0864 -0.0440 0.1311 -0.1579 0.6031 0.0000
0.1000 0.0535 0.0311 0.1364 -0.1243 0.3101 1.7663 3.5263 0.0190 0.0032 35.4646 -0.7265 1.9327 34.5432 0.0855 -0.0451 0.1153 -0.1497 0.6031 0.0000
0.1100 0.0519 0.0338 0.1540 -0.1093 0.2592 1.7203 3.8818 0.0213 0.0040 35.5175 -0.7725 1.8961 34.5942 0.0848 -0.0457 0.1023 -0.1476 0.6031 0.0000
0.1200 0.0506 0.0359 0.1710 -0.0955 0.2063 1.6634 4.2378 0.0238 0.0050 35.5702 -0.7999 1.8648 34.6450 0.0843 -0.0459 0.0914 -0.1488 0.6031 0.0000
0.1300 0.0494 0.0375 0.1874 -0.0819 0.1534 1.5988 4.5943 0.0266 0.0060 35.6230 -0.8086 1.8377 34.6956 0.0838 -0.0455 0.0824 -0.1508 0.6031 0.0000
0.1400 0.0484 0.0386 0.2031 -0.0681 0.1021 1.5290 4.9514 0.0296 0.0071 35.6758 -0.7990 1.8145 34.7460 0.0834 -0.0446 0.0748 -0.1523 0.6031 0.0000
0.1500 0.0476 0.0392 0.2180 -0.0541 0.0539 1.4561 5.3089 0.0329 0.0082 35.7286 -0.7720 1.7949 34.7961 0.0831 -0.0432 0.0685 -0.1527 0.6031 0.0000
0.1600 0.0471 0.0394 0.2322 -0.0404 0.0096 1.3815 5.6670 0.0364 0.0094 35.7814 -0.7289 1.7786 34.8461 0.0828 -0.0415 0.0633 -0.1523 0.6031 0.0000
0.1700 0.0468 0.0393 0.2456 -0.0270 -0.0298 1.3064 6.0256 0.0403 0.0107 35.8341 -0.6714 1.7654 34.8958 0.0826 -0.0393 0.0590 -0.1512 0.6031 0.0000
0.1800 0.0467 0.0387 0.2583 -0.0143 -0.0639 1.2317 6.3846 0.0445 0.0120 35.8866 -0.6013 1.7552 34.9453 0.0825 -0.0368 0.0554 -0.1498 0.6031 0.0000
0.1900 0.0468 0.0380 0.2702 -0.0021 -0.0922 1.1583 6.7442 0.0491 0.0134 35.9388 -0.5206 1.7476 34.9947 0.0823 -0.0341 0.0525 -0.1482 0.6031 0.0000
0.2000 0.0472 0.0370 0.2814 0.0096 -0.1146 1.0868 7.1043 0.0540 0.0148 35.9906 -0.4315 1.7425 35.0438 0.0823 -0.0312 0.0502 -0.1466 0.6031 0.0000
0.2100 0.0477 0.0358 0.2918 0.0206 -0.1311 1.0176 7.4649 0.0593 0.0163 36.0420 -0.3360 1.7396 35.0928 0.0823 -0.0281 0.0483 -0.1449 0.6031 0.0000
0.2200 0.0483 0.0346 0.3016 0.0311 -0.1418 0.9512 7.8259 0.0650 0.0178 36.0929 -0.2364 1.7390 35.1415 0.0823 -0.0249 0.0468 -0.1433 0.6031 0.0000
0.2300 0.0491 0.0333 0.3107 0.0412 -0.1469 0.8879 8.1875 0.0710 0.0194 36.1432 -0.1346 1.7405 35.1901 0.0823 -0.0217 0.0456 -0.1416 0.6031 0.0000
0.2400 0.0500 0.0321 0.3193 0.0507 -0.1469 0.8280 8.5495 0.0774 0.0210 36.1929 -0.0327 1.7441 35.2384 0.0824 -0.0186 0.0446 -0.1400 0.6031 0.0000
0.2500 0.0510 0.0309 0.3272 0.0598 -0.1420 0.7716 8.9121 0.0843 0.0227 36.2421 0.0678 1.7496 35.2865 0.0826 -0.0155 0.0438 -0.1386 0.6031 0.0000
0.2600 0.0520 0.0298 0.3346 0.0685 -0.1329 0.7188 9.2751 0.0915 0.0244 36.2907 0.1650 1.7572 35.3344 0.0828 -0.0125 0.0432 -0.1372 0.6031 0.0000
0.2700 0.0531 0.0288 0.3415 0.0768 -0.1200 0.6697 9.6386 0.0992 0.0262 36.3388 0.2576 1.7667 35.3821 0.0830 -0.0096 0.0426 -0.1360 0.6031 0.0000
0.2800 0.0543 0.0280 0.3479 0.0847 -0.1040 0.6243 10.0026 0.1072 0.0280 36.3864 0.3444 1.7781 35.4296 0.0833 -0.0070 0.0420 -0.1350 0.6031 0.0000
0.2900 0.0554 0.0274 0.3539 0.0924 -0.0855 0.5826 10.3671 0.1157 0.0299 36.4335 0.4243 1.7914 35.4768 0.0836 -0.0045 0.0414 -0.1342 0.6031 0.0000
0.3000 0.0566 0.0271 0.3595 0.0997 -0.0649 0.5444 10.7320 0.1246 0.0319 36.4803 0.4967 1.8066 35.5238 0.0839 -0.0023 0.0408 -0.1335 0.6031 0.0000
0.3100 0.0577 0.0269 0.3648 0.1069 -0.0430 0.5096 11.0975 0.1339 0.0339 36.5267 0.5609 1.8236 35.5705 0.0843 -0.0004 0.0401 -0.1330 0.6031 0.0000
0.3200 0.0589 0.0270 0.3697 0.1139 -0.0203 0.4781 11.4634 0.1437 0.0360 36.5729 0.6166 1.8424 35.6170 0.0848 0.0014 0.0394 -0.1327 0.6031 0.0000
0.3300 0.0600 0.0274 0.3744 0.1207 0.0027 0.4496 11.8297 0.1539 0.0382 36.6187 0.6636 1.8630 35.6632 0.0852 0.0028 0.0385 -0.1325 0.6031 0.0000
0.3400 0.0611 0.0280 0.3788 0.1274 0.0255 0.4240 12.1966 0.1645 0.0405 36.6644 0.7020 1.8854 35.7092 0.0858 0.0041 0.0376 -0.1325 0.6031 0.0000
0.3500 0.0622 0.0288 0.3829 0.1339 0.0476 0.4010 12.5638 0.1756 0.0429 36.7099 0.7320 1.9095 35.7549 0.0863 0.0050 0.0365 -0.1325 0.6031 0.0000
0.3600 0.0632 0.0298 0.3869 0.1404 0.0687 0.3804 12.9316 0.1871 0.0453 36.7551 0.7539 1.9353 35.8004 0.0869 0.0058 0.0353 -0.1326 0.6031 0.0000
0.3700 0.0643 0.0311 0.3907 0.1468 0.0884 0.3620 13.2998 0.1991 0.0479 36.8002 0.7682 1.9628 35.8456 0.0876 0.0063 0.0341 -0.1329 0.6031 0.0000
0.3800 0.0653 0.0326 0.3943 0.1531 0.1065 0.3454 13.6684 0.2116 0.0505 36.8451 0.7755 1.9919 35.8905 0.0883 0.0067 0.0327 -0.1331 0.6031 0.0000
0.3900 0.0663 0.0343 0.3978 0.1594 0.1227 0.3304 14.0375 0.2245 0.0533 36.8897 0.7766 2.0227 35.9352 0.0890 0.0069 0.0312 -0.1334 0.6031 0.0000
0.4000 0.0673 0.0361 0.4012 0.1655 0.1369 0.3169 14.4071 0.2379 0.0562 36.9341 0.7720 2.0550 35.9796 0.0898 0.0069 0.0297 -0.1338 0.6031 0.0000
0.4100 0.0683 0.0381 0.4044 0.1716 0.1490 0.3045 14.7771 0.2518 0.0592 36.9783 0.7627 2.0888 36.0237 0.0906 0.0068 0.0281 -0.1341 0.6031 0.0000
0.4200 0.0693 0.0402 0.4075 0.1775 0.1589 0.2931 15.1475 0.2662 0.0624 37.0222 0.7494 2.1241 36.0675 0.0914 0.0065 0.0265 -0.1345 0.6031 0.0000
0.4300 0.0703 0.0424 0.4106 0.1834 0.1667 0.2825 15.5184 0.2811 0.0656 37.0658 0.7330 2.1608 36.1111 0.0923 0.0062 0.0249 -0.1348 0.6031 0.0000
0.4400 0.0713 0.0447 0.4135 0.1891 0.1724 0.2725 15.8897 0.2966 0.0690 37.1091 0.7142 2.1988 36.1544 0.0932 0.0058 0.0233 -0.1352 0.6031 0.0000
0.4500 0.0724 0.0471 0.4163 0.1946 0.1761 0.2629 16.2614 0.3125 0.0726 37.1520 0.6938 2.2381 36.1974 0.0942 0.0054 0.0216 -0.1356 0.6031 0.0000
0.4600 0.0734 0.0495 0.4191 0.2000 0.1780 0.2536 16.6336 0.3290 0.0763 37.1946 0.6725 2.2787 36.2400 0.0951 0.0050 0.0200 -0.1359 0.6031 0.0000
0.4700 0.0746 0.0520 0.4218 0.2052 0.1781 0.2445 17.0062 0.3460 0.0802 37.2368 0.6510 2.3203 36.2824 0.0961 0.0045 0.0185 -0.1363 0.6031 0.0000
0.4800 0.0757 0.0544 0.4244 0.2102 0.1767 0.2355 17.3792 0.3636 0.0843 37.2786 0.6298 2.3630 36.3245 0.0971 0.0041 0.0170 -0.1367 0.6031 0.0000
0.4900 0.0769 0.0569 0.4269 0.2150 0.1740 0.2266 17.7526 0.3818 0.0885 37.3200 0.6096 2.4067 36.3663 0.0982 0.0036 0.0155 -0.1370 0.6031 0.0000
0.5000 0.0782 0.0594 0.4293 0.2196 0.1701 0.2176 18.1264 0.4006 0.0929 37.3610 0.5906 2.4512 36.4078 0.0992 0.0032 0.0142 -0.1373 0.6031 0.0000
0.5100 0.0795 0.0619 0.4316 0.2240 0.1653 0.2085 18.5006 0.4199 0.0975 37.4016 0.5734 2.4965 36.4490 0.1003 0.0029 0.0129 -0.1377 0.6031 0.0000
0.5200 0.0809 0.0643 0.4338 0.2282 0.1598 0.1994 18.8753 0.4398 0.1024 37.4419 0.5582 2.5424 36.4898 0.1014 0.0026 0.0117 -0.1380 0.6031 0.0000
0.5300 0.0823 0.0667 0.4360 0.2321 0.1537 0.1902 19.2503 0.4604 0.1074 37.4817 0.5452 2.5890 36.5304 0.1025 0.0023 0.0105 -0.1384 0.6031 0.0000
0.5400 0.0838 0.0691 0.4380 0.2358 0.1473 0.1809 19.6257 0.4815 0.1126 37.5211 0.5346 2.6360 36.5706 0.1036 0.0021 0.0095 -0.1387 0.6031 0.0000
0.5500 0.0853 0.0714 0.4400 0.2393 0.1408 0.1715 20.0015 0.5033 0.1181 37.5602 0.5263 2.6834 36.6105 0.1047 0.0020 0.0086 -0.1391 0.6031 0.0000
0.5600 0.0869 0.0737 0.4418 0.2425 0.1343 0.1621 20.3777 0.5258 0.1238 37.5988 0.5204 2.7312 36.6501 0.1058 0.0020 0.0078 -0.1394 0.6031 0.0000
0.5700 0.0886 0.0759 0.4436 0.2455 0.1280 0.1527 20.7543 0.5489 0.1298 37.6371 0.5169 2.7791 36.6894 0.1069 0.0019 0.0070 -0.1398 0.6031 0.0000
0.5800 0.0903 0.0781 0.4453 0.2484 0.1220 0.1433 21.1313 0.5726 0.1360 37.6750 0.5156 2.8272 36.7284 0.1080 0.0020 0.0064 -0.1402 0.6031 0.0000
0.5900 0.0920 0.0803 0.4469 0.2510 0.1164 0.1341 21.5086 0.5970 0.1425 37.7125 0.5164 2.8753 36.7670 0.1091 0.0021 0.0058 -0.1406 0.6031 0.0000
0.6000 0.0938 0.0824 0.4483 0.2534 0.1113 0.1249 21.8863 0.6221 0.1492 37.7497 0.5190 2.9234 36.8053 0.1102 0.0023 0.0053 -0.1410 0.6031 0.0000
0.6100 0.0956 0.0845 0.4498 0.2556 0.1068 0.1160 22.2644 0.6479 0.1562 37.7865 0.5233 2.9715 36.8433 0.1113 0.0024 0.0048 -0.1415 0.6031 0.0000
0.6200 0.0975 0.0865 0.4511 0.2576 0.1029 0.1072 22.6428 0.6744 0.1635 37.8229 0.5291 3.0193 36.8810 0.1124 0.0027 0.0045 -0.1419 0.6031 0.0000
0.6300 0.0993 0.0886 0.4523 0.2595 0.0996 0.0987 23.0216 0.7015 0.1712 37.8590 0.5360 3.0670 36.9183 0.1135 0.0029 0.0042 -0.1424 0.6031 0.0000
0.6400 0.1013 0.0906 0.4534 0.2613 0.0970 0.0905 23.4008 0.7294 0.1791 37.8948 0.5438 3.1144 36.9553 0.1146 0.0032 0.0039 -0.1429 0.6031 0.0000
0.6500 0.1032 0.0926 0.4545 0.2628 0.0950 0.0827 23.7803 0.7580 0.1873 37.9303 0.5523 3.1615 36.9920 0.1156 0.0035 0.0037 -0.1434 0.6031 0.0000
0.6600 0.1051 0.0947 0.4555 0.2643 0.0936 0.0752 24.1601 0.7873 0.1959 37.9654 0.5612 3.2082 37.0284 0.1167 0.0038 0.0035 -0.1439 0.6031 0.0000
0.6700 0.1071 0.0967 0.4564 0.2656 0.0929 0.0680 24.5402 0.8174 0.2048 38.0002 0.5703 3.2545 37.0644 0.1177 0.0041 0.0033 -0.1444 0.6031 0.0000
0.6800 0.1091 0.0987 0.4573 0.2668 0.0927 0.0613 24.9207 0.8482 0.2141 38.0347 0.5793 3.3004 37.1001 0.1187 0.0043 0.0032 -0.1450 0.6031 0.0000
0.6900 0.1111 0.1007 0.4581 0.2680 0.0929 0.0550 25.3015 0.8797 0.2237 38.0689 0.5881 3.3458 37.1355 0.1197 0.0046 0.0030 -0.1455 0.6031 0.0000
0.7000 0.1131 0.1028 0.4589 0.2690 0.0936 0.0490 25.6827 0.9120 0.2337 38.1028 0.5966 3.3907 37.1705 0.1207 0.0049 0.0029 -0.1461 0.6031 0.0000
0.7100 0.1151 0.1048 0.4596 0.2700 0.0947 0.0435 26.0641 0.9451 0.2440 38.1364 0.6045 3.4351 37.2053 0.1217 0.0051 0.0028 -0.1467 0.6031 0.0000
0.7200 0.1171 0.1069 0.4602 0.2708 0.0961 0.0384 26.4459 0.9789 0.2548 38.1698 0.6117 3.4790 37.2397 0.1226 0.0054 0.0027 -0.1472 0.6031 0.0000
0.7300 0.1191 0.1090 0.4608 0.2717 0.0977 0.0336 26.8280 1.0134 0.2659 38.2028 0.6182 3.5224 37.2738 0.1236 0.0056 0.0025 -0.1478 0.6031 0.0000
0.7400 0.1211 0.1111 0.4614 0.2724 0.0994 0.0293 27.2104 1.0487 0.2774 38.2356 0.6239 3.5652 37.3075 0.1245 0.0058 0.0024 -0.1484 0.6031 0.0000
0.7500 0.1231 0.1132 0.4619 0.2731 0.1013 0.0252 27.5930 1.0849 0.2894 38.2681 0.6286 3.6074 37.3409 0.1254 0.0059 0.0023 -0.1490 0.6031 0.0000
0.7600 0.1251 0.1154 0.4624 0.2738 0.1032 0.0216 27.9760 1.1217 0.3017 38.3003 0.6326 3.6491 37.3740 0.1263 0.0061 0.0021 -0.1495 0.6031 0.0000
0.7700 0.1271 0.1175 0.4629 0.2744 0.1051 0.0182 28.3592 1.1594 0.3145 38.3322 0.6356 3.6901 37.4068 0.1272 0.0062 0.0020 -0.1501 0.6031 0.0000
0.7800 0.1290 0.1197 0.4633 0.2750 0.1070 0.0151 28.7428 1.1979 0.3277 38.3639 0.6378 3.7306 37.4393 0.1280 0.0063 0.0018 -0.1506 0.6031 0.0000
0.7900 0.1310 0.1219 0.4637 0.2755 0.1087 0.0122 29.1266 1.2371 0.3414 38.3953 0.6391 3.7705 37.4714 0.1289 0.0064 0.0016 -0.1512 0.6031 0.0000
0.8000 0.1330 0.1242 0.4641 0.2760 0.1103 0.0096 29.5106 1.2772 0.3555 38.4265 0.6397 3.8098 37.5032 0.1297 0.0064 0.0014 -0.1517 0.6031 0.0000
0.8100 0.1350 0.1264 0.4645 0.2765 0.1118 0.0071 29.8950 1.3180 0.3701 38.4574 0.6396 3.8485 37.5347 0.1305 0.0064 0.0012 -0.1522 0.6031 0.0000
0.8200 0.1369 0.1287 0.4649 0.2769 0.1130 0.0049 30.2796 1.3597 0.3851 38.4880 0.6388 3.8866 37.5659 0.1313 0.0065 0.0010 -0.1527 0.6031 0.0000
0.8300 0.1389 0.1310 0.4653 0.2773 0.1141 0.0028 30.6644 1.4022 0.4007 38.5183 0.6376 3.9241 37.5967 0.1320 0.0065 0.0008 -0.1532 0.6031 0.0000
0.8400 0.1409 0.1333 0.4656 0.2776 0.1149 0.0008 31.0495 1.4455 0.4167 38.5484 0.6358 3.9610 37.6273 0.1328 0.0064 0.0006 -0.1537 0.6031 0.0000
0.8500 0.1428 0.1356 0.4659 0.2779 0.1155 -0.0011 31.4348 1.4896 0.4332 38.5783 0.6337 3.9972 37.6575 0.1335 0.0064 0.0004 -0.1542 0.6031 0.0000
0.8600 0.1448 0.1379 0.4662 0.2782 0.1159 -0.0029 31.8204 1.5345 0.4502 38.6078 0.6313 4.0329 37.6874 0.1343 0.0064 0.0002 -0.1546 0.6031 0.0000
0.8700 0.1468 0.1402 0.4665 0.2784 0.1161 -0.0046 32.2062 1.5802 0.4677 38.6371 0.6287 4.0679 37.7169 0.1350 0.0064 -0.0000 -0.1550 0.6031 0.0000
0.8800 0.1487 0.1425 0.4668 0.2785 0.1162 -0.0063 32.5922 1.6268 0.4857 38.6662 0.6259 4.1023 37.7462 0.1357 0.0063 -0.0002 -0.1554 0.6031 0.0000
0.8900 0.1507 0.1448 0.4671 0.2787 0.1160 -0.0079 32.9784 1.6742 0.5042 38.6950 0.6231 4.1360 37.7751 0.1363 0.0063 -0.0004 -0.1558 0.6031 0.0000
0.9000 0.1527 0.1471 0.4673 0.2787 0.1157 -0.0096 33.3649 1.7225 0.5233 38.7235 0.6203 4.1691 37.8038 0.1370 0.0062 -0.0006 -0.1562 0.6031 0.0000
0.9100 0.1546 0.1494 0.4676 0.2788 0.1152 -0.0112 33.7516 1.7716 0.5429 38.7518 0.6176 4.2016 37.8321 0.1376 0.0062 -0.0008 -0.1566 0.6031 0.0000
0.9200 0.1566 0.1518 0.4678 0.2788 0.1147 -0.0127 34.1384 1.8215 0.5631 38.7798 0.6150 4.2335 37.8601 0.1383 0.0062 -0.0010 -0.1569 0.6031 0.0000
0.9300 0.1586 0.1541 0.4681 0.2787 0.1140 -0.0143 34.5255 1.8723 0.5838 38.8075 0.6125 4.2647 37.8877 0.1389 0.0061 -0.0012 -0.1573 0.6031 0.0000
0.9400 0.1605 0.1564 0.4683 0.2786 0.1132 -0.0158 34.9127 1.9239 0.6050 38.8351 0.6102 4.2952 37.9151 0.1394 0.0061 -0.0013 -0.1576 0.6031 0.0000
0.9500 0.1625 0.1587 0.4685 0.2784 0.1124 -0.0174 35.3002 1.9764 0.6268 38.8623 0.6081 4.3251 37.9422 0.1400 0.0061 -0.0015 -0.1579 0.6031 0.0000
0.9600 0.1645 0.1609 0.4687 0.2782 0.1116 -0.0189 35.6878 2.0297 0.6492 38.8893 0.6063 4.3543 37.9689 0.1406 0.0060 -0.0016 -0.1582 0.6031 0.0000
0.9700 0.1665 0.1632 0.4688 0.2780 0.1107 -0.0205 36.0755 2.0839 0.6721 38.9161 0.6047 4.3828 37.9953 0.1411 0.0060 -0.0018 -0.1585 0.6031 0.0000
0.9800 0.1685 0.1655 0.4690 0.2777 0.1099 -0.0220 36.4635 2.1389 0.6957 38.9426 0.6033 4.4107 38.0215 0.1416 0.0060 -0.0019 -0.1588 0.6031 0.0000
0.9900 0.1704 0.1678 0.4692 0.2773 0.1090 -0.0235 36.8516 2.1948 0.7198 38.9689 0.6021 4.4379 38.0473 0.1421 0.0060 -0.0020 -0.1591 0.6031 0.0000
1.0000 0.1724 0.1700 0.4693 0.2769 0.1082 -0.0250 37.2398 2.2516 0.7445 38.9949 0.6012 4.4644 38.0728 0.1426 0.0060 -0.0021 -0.1593 0.6031 0.0000
1.0100 0.1744 0.1723 0.4694 0.2765 0.1075 -0.0264 37.6282 2.3092 0.7698 39.0207 0.6004 4.4902 38.0980 0.1431 0.0060 -0.0026 -0.1596 0.6031 0.0000
1.0200 0.1764 0.1745 0.4696 0.2761 0.1065 -0.0285 38.0168 2.3677 0.7956 39.0463 0.5999 4.5154 38.1229 0.1435 0.0060 -0.0141 -0.1598 0.6031 0.0000
1.0300 0.1784 0.1767 0.4696 0.2756 0.0992 -0.0464 38.4055 2.4271 0.8221 39.0716 0.6005 4.5399 38.1475 0.1439 0.0061 -0.0254 -0.1600 0.6031 0.0000
1.0400 0.1804 0.1788 0.4693 0.2750 0.0864 -0.0780 38.7943 2.4873 0.8493 39.0966 0.6038 4.5639 38.1718 0.1444 0.0062 -0.0346 -0.1602 0.6031 0.0000
1.0500 0.1825 0.1808 0.4687 0.2744 0.0700 -0.1186 39.1832 2.5484 0.8770 39.1213 0.6111 4.5874 38.1958 0.1447 0.0064 -0.0413 -0.1603 0.6031 0.0000
1.0600 0.1847 0.1826 0.4676 0.2736 0.0520 -0.1638 39.5723 2.6104 0.9053 39.1456 0.6230 4.6106 38.2195 0.1451 0.0066 -0.0459 -0.1602 0.6031 0.0000
1.0700 0.1869 0.1842 0.4660 0.2727 0.0341 -0.2100 39.9614 2.6732 0.9343 39.1697 0.6396 4.6333 38.2428 0.1455 0.0070 -0.0487 -0.1600 0.6031 0.0000
1.0800 0.1892 0.1857 0.4640 0.2716 0.0174 -0.2545 40.3507 2.7370 0.9639 39.1933 0.6605 4.6556 38.2659 0.1458 0.0075 -0.0499 -0.1596 0.6031 0.0000
1.0900 0.1916 0.1870 0.4615 0.2703 0.0029 -0.2956 40.7401 2.8016 0.9942 39.2167 0.6851 4.6775 38.2886 0.1462 0.0081 -0.0499 -0.1593 0.6031 0.0000
1.1000 0.1940 0.1882 0.4586 0.2687 -0.0088 -0.3321 41.1295 2.8672 1.0251 39.2397 0.7127 4.6989 38.3110 0.1465 0.0087 -0.0490 -0.1590 0.6031 0.0000
1.1100 0.1965 0.1893 0.4553 0.2669 -0.0174 -0.3633 41.5191 2.9336 1.0567 39.2624 0.7421 4.7197 38.3331 0.1468 0.0094 -0.0476 -0.1587 0.6031 0.0000
1.1200 0.1990 0.1903 0.4517 0.2649 -0.0230 -0.3892 41.9087 3.0009 1.0889 39.2848 0.7724 4.7399 38.3549 0.1470 0.0101 -0.0459 -0.1586 0.6031 0.0000
1.1300 0.2015 0.1912 0.4479 0.2628 -0.0256 -0.4100 42.2984 3.0691 1.1218 39.3070 0.8027 4.7594 38.3764 0.1473 0.0107 -0.0440 -0.1586 0.6031 0.0000
1.1400 0.2039 0.1922 0.4439 0.2606 -0.0255 -0.4260 42.6882 3.1382 1.1553 39.3290 0.8320 4.7782 38.3976 0.1475 0.0114 -0.0423 -0.1586 0.6031 0.0000
1.1500 0.2064 0.1931 0.4398 0.2583 -0.0232 -0.4380 43.0781 3.2081 1.1896 39.3507 0.8596 4.7961 38.4185 0.1477 0.0120 -0.0408 -0.1587 0.6031 0.0000
1.1600 0.2088 0.1940 0.4355 0.2561 -0.0192 -0.4468 43.4680 3.2789 1.2245 39.3723 0.8849 4.8132 38.4391 0.1479 0.0125 -0.0396 -0.1590 0.6031 0.0000
1.1700 0.2112 0.1949 0.4312 0.2539 -0.0138 -0.4529 43.8580 3.3505 1.2601 39.3937 0.9074 4.8294 38.4595 0.1481 0.0129 -0.0387 -0.1592 0.6031 0.0000
1.1800 0.2135 0.1959 0.4269 0.2517 -0.0078 -0.4572 44.2480 3.4230 1.2964 39.4150 0.9269 4.8448 38.4795 0.1482 0.0133 -0.0383 -0.1595 0.6031 0.0000
1.1900 0.2158 0.1969 0.4225 0.2496 -0.0014 -0.4604 44.6381 3.4963 1.3335 39.4362 0.9431 4.8594 38.4993 0.1483 0.0136 -0.0383 -0.1598 0.6031 0.0000
1.2000 0.2181 0.1980 0.4181 0.2475 0.0049 -0.4631 45.0282 3.5704 1.3712 39.4572 0.9562 4.8731 38.5187 0.1484 0.0138 -0.0386 -0.1601 0.6031 0.0000
1.2100 0.2203 0.1991 0.4137 0.2456 0.0107 -0.4656 45.4184 3.6454 1.4097 39.4781 0.9663 4.8861 38.5380 0.1485 0.0140 -0.0392 -0.1604 0.6031 0.0000
1.2200 0.2225 0.2002 0.4093 0.2438 0.0157 -0.4685 45.8086 3.7211 1.4489 39.4988 0.9736 4.8983 38.5569 0.1486 0.0140 -0.0400 -0.1606 0.6031 0.0000
1.2300 0.2247 0.2013 0.4049 0.2420 0.0199 -0.4718 46.1988 3.7977 1.4888 39.5194 0.9785 4.9097 38.5755 0.1486 0.0141 -0.0410 -0.1608 0.6031 0.0000
1.2400 0.2268 0.2025 0.4004 0.2403 0.0230 -0.4758 46.5890 3.8750 1.5295 39.5398 0.9813 4.9205 38.5939 0.1487 0.0140 -0.0421 -0.1610 0.6031 0.0000
1.2500 0.2289 0.2037 0.3959 0.2386 0.0250 -0.4804 46.9793 3.9531 1.5709 39.5601 0.9824 4.9307 38.6120 0.1487 0.0139 -0.0433 -0.1611 0.6031 0.0000
1.2600 0.2310 0.2049 0.3913 0.2370 0.0261 -0.4856 47.3696 4.0320 1.6130 39.5802 0.9822 4.9403 38.6298 0.1487 0.0138 -0.0443 -0.1611 0.6031 0.0000
1.2700 0.2331 0.2060 0.3867 0.2354 0.0261 -0.4912 47.7599 4.1116 1.6559 39.6000 0.9810 4.9493 38.6474 0.1487 0.0137 -0.0453 -0.1611 0.6031 0.0000
1.2800 0.2352 0.2072 0.3820 0.2339 0.0253 -0.4971 48.1502 4.1919 1.6996 39.6197 0.9793 4.9577 38.6647 0.1486 0.0135 -0.0461 -0.1611 0.6031 0.0000
1.2900 0.2373 0.2083 0.3773 0.2323 0.0239 -0.5031 48.5405 4.2730 1.7440 39.6391 0.9773 4.9657 38.6817 0.1486 0.0133 -0.0467 -0.1610 0.6031 0.0000
1.3000 0.2393 0.2094 0.3725 0.2308 0.0219 -0.5088 48.9308 4.3549 1.7892 39.6583 0.9753 4.9731 38.6984 0.1485 0.0132 -0.0472 -0.1609 0.6031 0.0000
1.3100 0.2414 0.2105 0.3676 0.2292 0.0195 -0.5141 49.3211 4.4374 1.8351 39.6773 0.9733 4.9800 38.7149 0.1485 0.0130 -0.0474 -0.1608 0.6031 0.0000
1.3200 0.2435 0.2115 0.3627 0.2276 0.0169 -0.5189 49.7114 4.5207 1.8819 39.6961 0.9717 4.9863 38.7311 0.1484 0.0128 -0.0475 -0.1606 0.6031 0.0000
1.3300 0.2455 0.2124 0.3577 0.2260 0.0143 -0.5228 50.1017 4.6046 1.9294 39.7146 0.9704 4.9922 38.7471 0.1483 0.0127 -0.0473 -0.1604 0.6031 0.0000
1.3400 0.2476 0.2134 0.3527 0.2243 0.0118 -0.5259 50.4919 4.6893 1.9776 39.7329 0.9695 4.9976 38.7627 0.1482 0.0125 -0.0470 -0.1602 0.6031 0.0000
