     time [s]   theta [rad]     psi [rad]     phi [rad]     q [rad/s]     r [rad/s]     p [rad/s]        pn [m]        pe [m]         h [m]       u [m/s]       v [m/s]       w [m/s]      Va [m/s]   alpha [rad]    beta [rad] delta_a [rad] delta_e [rad]       delta_t delta_r [rad]
23.0000 0.3095 -0.0746 -0.1082 -0.0138 -0.0198 0.1075 822.3602 252.0401 44.0375 31.4564 2.6691 8.5257 29.9422 0.1180 -0.0043 0.0110 -0.1357 0.4545 0.0000
23.0100 0.3093 -0.0748 -0.1072 -0.0140 -0.0196 0.1065 822.6864 252.0792 44.0553 31.4519 2.6749 8.5190 29.9372 0.1179 -0.0042 0.0109 -0.1356 0.4545 0.0000
23.0200 0.3092 -0.0750 -0.1062 -0.0141 -0.0194 0.1055 823.0127 252.1181 44.0730 31.4473 2.6807 8.5122 29.9323 0.1179 -0.0042 0.0108 -0.1355 0.4545 0.0000
23.0300 0.3090 -0.0752 -0.1052 -0.0143 -0.0193 0.1046 823.3389 252.1570 44.0908 31.4428 2.6863 8.5056 29.9274 0.1178 -0.0042 0.0107 -0.1355 0.4546 0.0000
23.0400 0.3088 -0.0753 -0.1042 -0.0144 -0.0191 0.1036 823.6650 252.1957 44.1085 31.4383 2.6920 8.4990 29.9225 0.1177 -0.0041 0.0106 -0.1354 0.4546 0.0000
23.0500 0.3087 -0.0755 -0.1032 -0.0146 -0.0189 0.1027 823.9911 252.2343 44.1262 31.4339 2.6976 8.4925 29.9177 0.1176 -0.0041 0.0105 -0.1354 0.4546 0.0000
23.0600 0.3085 -0.0757 -0.1023 -0.0147 -0.0188 0.1017 824.3171 252.2728 44.1438 31.4295 2.7031 8.4860 29.9130 0.1175 -0.0040 0.0104 -0.1353 0.4546 0.0000
23.0700 0.3083 -0.0759 -0.1013 -0.0148 -0.0186 0.1008 824.6431 252.3111 44.1614 31.4252 2.7086 8.4796 29.9082 0.1174 -0.0040 0.0103 -0.1352 0.4547 0.0000
23.0800 0.3082 -0.0761 -0.1004 -0.0149 -0.0185 0.0998 824.9691 252.3494 44.1790 31.4209 2.7140 8.4732 29.9035 0.1173 -0.0040 0.0102 -0.1352 0.4547 0.0000
23.0900 0.3080 -0.0762 -0.0994 -0.0151 -0.0183 0.0989 825.2949 252.3875 44.1965 31.4166 2.7193 8.4669 29.8989 0.1173 -0.0039 0.0101 -0.1351 0.4547 0.0000
23.1000 0.3078 -0.0764 -0.0985 -0.0152 -0.0182 0.0980 825.6208 252.4256 44.2141 31.4124 2.7247 8.4607 29.8943 0.1172 -0.0039 0.0100 -0.1351 0.4547 0.0000
23.1100 0.3077 -0.0766 -0.0976 -0.0153 -0.0180 0.0971 825.9466 252.4635 44.2315 31.4082 2.7299 8.4545 29.8897 0.1171 -0.0039 0.0099 -0.1350 0.4548 0.0000
23.1200 0.3075 -0.0768 -0.0967 -0.0154 -0.0179 0.0962 826.2723 252.5013 44.2490 31.4041 2.7351 8.4484 29.8851 0.1170 -0.0038 0.0098 -0.1350 0.4548 0.0000
23.1300 0.3073 -0.0769 -0.0958 -0.0155 -0.0177 0.0953 826.5980 252.5390 44.2664 31.4000 2.7403 8.4424 29.8806 0.1170 -0.0038 0.0097 -0.1349 0.4548 0.0000
23.1400 0.3072 -0.0771 -0.0949 -0.0157 -0.0176 0.0944 826.9237 252.5766 44.2837 31.3960 2.7454 8.4364 29.8762 0.1169 -0.0038 0.0096 -0.1349 0.4548 0.0000
23.1500 0.3070 -0.0773 -0.0940 -0.0158 -0.0174 0.0935 827.2493 252.6141 44.3011 31.3919 2.7505 8.4305 29.8717 0.1168 -0.0037 0.0096 -0.1348 0.4548 0.0000
23.1600 0.3068 -0.0774 -0.0931 -0.0159 -0.0173 0.0927 827.5748 252.6515 44.3184 31.3880 2.7555 8.4246 29.8673 0.1167 -0.0037 0.0095 -0.1348 0.4549 0.0000
23.1700 0.3066 -0.0776 -0.0922 -0.0160 -0.0171 0.0918 827.9004 252.6888 44.3356 31.3840 2.7605 8.4188 29.8630 0.1167 -0.0037 0.0094 -0.1347 0.4549 0.0000
23.1800 0.3065 -0.0778 -0.0913 -0.0161 -0.0170 0.0909 828.2258 252.7259 44.3528 31.3801 2.7654 8.4130 29.8587 0.1166 -0.0036 0.0093 -0.1347 0.4549 0.0000
23.1900 0.3063 -0.0779 -0.0905 -0.0162 -0.0169 0.0901 828.5513 252.7630 44.3700 31.3763 2.7703 8.4073 29.8544 0.1165 -0.0036 0.0092 -0.1346 0.4549 0.0000
23.2000 0.3061 -0.0781 -0.0896 -0.0163 -0.0167 0.0892 828.8767 252.8000 44.3871 31.3724 2.7751 8.4017 29.8502 0.1165 -0.0036 0.0091 -0.1346 0.4550 0.0000
23.2100 0.3059 -0.0782 -0.0888 -0.0164 -0.0166 0.0884 829.2020 252.8369 44.4042 31.3686 2.7799 8.3961 29.8459 0.1164 -0.0035 0.0090 -0.1346 0.4550 0.0000
23.2200 0.3057 -0.0784 -0.0880 -0.0164 -0.0164 0.0876 829.5273 252.8736 44.4213 31.3649 2.7847 8.3906 29.8418 0.1163 -0.0035 0.0089 -0.1345 0.4550 0.0000
23.2300 0.3056 -0.0785 -0.0871 -0.0165 -0.0163 0.0867 829.8526 252.9103 44.4383 31.3612 2.7894 8.3852 29.8376 0.1163 -0.0035 0.0089 -0.1345 0.4550 0.0000
23.2400 0.3054 -0.0787 -0.0863 -0.0166 -0.0162 0.0859 830.1778 252.9469 44.4553 31.3575 2.7940 8.3797 29.8335 0.1162 -0.0034 0.0088 -0.1344 0.4550 0.0000
23.2500 0.3052 -0.0789 -0.0855 -0.0167 -0.0160 0.0851 830.5030 252.9833 44.4722 31.3539 2.7986 8.3744 29.8295 0.1162 -0.0034 0.0087 -0.1344 0.4551 0.0000
23.2600 0.3050 -0.0790 -0.0847 -0.0168 -0.0159 0.0843 830.8281 253.0197 44.4891 31.3503 2.8032 8.3691 29.8255 0.1161 -0.0034 0.0086 -0.1344 0.4551 0.0000
23.2700 0.3048 -0.0792 -0.0839 -0.0169 -0.0158 0.0835 831.1532 253.0560 44.5060 31.3467 2.8077 8.3639 29.8215 0.1160 -0.0033 0.0085 -0.1343 0.4551 0.0000
23.2800 0.3047 -0.0793 -0.0831 -0.0169 -0.0156 0.0827 831.4783 253.0922 44.5228 31.3432 2.8122 8.3587 29.8175 0.1160 -0.0033 0.0084 -0.1343 0.4551 0.0000
23.2900 0.3045 -0.0795 -0.0824 -0.0170 -0.0155 0.0819 831.8033 253.1283 44.5396 31.3397 2.8166 8.3536 29.8136 0.1159 -0.0033 0.0084 -0.1343 0.4552 0.0000
23.3000 0.3043 -0.0796 -0.0816 -0.0171 -0.0154 0.0811 832.1283 253.1642 44.5563 31.3363 2.8210 8.3485 29.8097 0.1159 -0.0032 0.0083 -0.1342 0.4552 0.0000
23.3100 0.3041 -0.0797 -0.0808 -0.0171 -0.0153 0.0803 832.4532 253.2001 44.5730 31.3329 2.8253 8.3435 29.8059 0.1158 -0.0032 0.0082 -0.1342 0.4552 0.0000
23.3200 0.3039 -0.0799 -0.0801 -0.0172 -0.0151 0.0795 832.7781 253.2359 44.5896 31.3295 2.8296 8.3386 29.8021 0.1158 -0.0032 0.0081 -0.1342 0.4552 0.0000
23.3300 0.3038 -0.0800 -0.0793 -0.0173 -0.0150 0.0788 833.1030 253.2717 44.6062 31.3262 2.8339 8.3337 29.7983 0.1157 -0.0032 0.0080 -0.1341 0.4552 0.0000
23.3400 0.3036 -0.0802 -0.0786 -0.0173 -0.0149 0.0780 833.4278 253.3073 44.6227 31.3229 2.8381 8.3288 29.7946 0.1157 -0.0031 0.0080 -0.1341 0.4553 0.0000
23.3500 0.3034 -0.0803 -0.0778 -0.0174 -0.0148 0.0772 833.7526 253.3428 44.6392 31.3196 2.8423 8.3240 29.7909 0.1156 -0.0031 0.0079 -0.1341 0.4553 0.0000
23.3600 0.3032 -0.0805 -0.0771 -0.0175 -0.0146 0.0765 834.0774 253.3782 44.6557 31.3164 2.8464 8.3193 29.7872 0.1156 -0.0031 0.0078 -0.1340 0.4553 0.0000
23.3700 0.3030 -0.0806 -0.0764 -0.0175 -0.0145 0.0758 834.4021 253.4136 44.6721 31.3132 2.8505 8.3146 29.7836 0.1155 -0.0030 0.0077 -0.1340 0.4553 0.0000
23.3800 0.3028 -0.0807 -0.0757 -0.0176 -0.0144 0.0750 834.7268 253.4489 44.6885 31.3100 2.8546 8.3100 29.7800 0.1155 -0.0030 0.0077 -0.1340 0.4553 0.0000
23.3900 0.3026 -0.0809 -0.0750 -0.0176 -0.0143 0.0743 835.0514 253.4840 44.7048 31.3069 2.8586 8.3054 29.7765 0.1155 -0.0030 0.0076 -0.1340 0.4554 0.0000
23.4000 0.3025 -0.0810 -0.0743 -0.0177 -0.0142 0.0735 835.3760 253.5191 44.7210 31.3038 2.8626 8.3009 29.7729 0.1154 -0.0030 0.0075 -0.1339 0.4554 0.0000
23.4100 0.3023 -0.0811 -0.0736 -0.0177 -0.0141 0.0728 835.7006 253.5541 44.7373 31.3008 2.8665 8.2965 29.7695 0.1154 -0.0029 0.0074 -0.1339 0.4554 0.0000
23.4200 0.3021 -0.0813 -0.0729 -0.0177 -0.0139 0.0721 836.0252 253.5890 44.7535 31.2978 2.8704 8.2921 29.7660 0.1153 -0.0029 0.0074 -0.1339 0.4554 0.0000
23.4300 0.3019 -0.0814 -0.0722 -0.0178 -0.0138 0.0714 836.3497 253.6238 44.7696 31.2948 2.8743 8.2877 29.7626 0.1153 -0.0029 0.0073 -0.1339 0.4554 0.0000
23.4400 0.3017 -0.0815 -0.0716 -0.0178 -0.0137 0.0707 836.6742 253.6586 44.7857 31.2919 2.8781 8.2834 29.7592 0.1153 -0.0029 0.0072 -0.1338 0.4555 0.0000
23.4500 0.3015 -0.0817 -0.0709 -0.0179 -0.0136 0.0700 836.9986 253.6932 44.8017 31.2890 2.8819 8.2791 29.7559 0.1152 -0.0028 0.0071 -0.1338 0.4555 0.0000
23.4600 0.3013 -0.0818 -0.0702 -0.0179 -0.0135 0.0693 837.3231 253.7278 44.8177 31.2861 2.8856 8.2749 29.7526 0.1152 -0.0028 0.0071 -0.1338 0.4555 0.0000
23.4700 0.3011 -0.0819 -0.0696 -0.0179 -0.0134 0.0686 837.6475 253.7623 44.8336 31.2832 2.8893 8.2708 29.7493 0.1152 -0.0028 0.0070 -0.1338 0.4555 0.0000
23.4800 0.3010 -0.0820 -0.0689 -0.0180 -0.0133 0.0679 837.9718 253.7967 44.8495 31.2804 2.8930 8.2667 29.7460 0.1151 -0.0027 0.0069 -0.1338 0.4555 0.0000
23.4900 0.3008 -0.0822 -0.0683 -0.0180 -0.0132 0.0672 838.2962 253.8311 44.8653 31.2777 2.8967 8.2627 29.7428 0.1151 -0.0027 0.0068 -0.1337 0.4556 0.0000
23.5000 0.3006 -0.0823 -0.0677 -0.0180 -0.0131 0.0666 838.6205 253.8653 44.8811 31.2749 2.9003 8.2587 29.7397 0.1151 -0.0027 0.0068 -0.1337 0.4556 0.0000
23.5100 0.3004 -0.0824 -0.0670 -0.0181 -0.0130 0.0659 838.9447 253.8995 44.8969 31.2722 2.9038 8.2547 29.7365 0.1150 -0.0027 0.0067 -0.1337 0.4556 0.0000
23.5200 0.3002 -0.0825 -0.0664 -0.0181 -0.0129 0.0652 839.2690 253.9336 44.9126 31.2696 2.9073 8.2508 29.7334 0.1150 -0.0026 0.0066 -0.1337 0.4556 0.0000
23.5300 0.3000 -0.0827 -0.0658 -0.0181 -0.0128 0.0646 839.5932 253.9676 44.9282 31.2669 2.9108 8.2470 29.7303 0.1150 -0.0026 0.0066 -0.1337 0.4556 0.0000
23.5400 0.2998 -0.0828 -0.0652 -0.0181 -0.0127 0.0639 839.9174 254.0015 44.9438 31.2643 2.9143 8.2432 29.7273 0.1150 -0.0026 0.0065 -0.1337 0.4557 0.0000
23.5500 0.2996 -0.0829 -0.0646 -0.0181 -0.0126 0.0633 840.2415 254.0354 44.9593 31.2617 2.9177 8.2395 29.7243 0.1149 -0.0026 0.0064 -0.1337 0.4557 0.0000
23.5600 0.2994 -0.0830 -0.0640 -0.0182 -0.0125 0.0626 840.5657 254.0691 44.9748 31.2592 2.9211 8.2358 29.7213 0.1149 -0.0025 0.0064 -0.1336 0.4557 0.0000
23.5700 0.2993 -0.0831 -0.0634 -0.0182 -0.0124 0.0620 840.8898 254.1028 44.9903 31.2567 2.9245 8.2321 29.7184 0.1149 -0.0025 0.0063 -0.1336 0.4557 0.0000
23.5800 0.2991 -0.0833 -0.0628 -0.0182 -0.0123 0.0614 841.2139 254.1365 45.0057 31.2542 2.9278 8.2285 29.7155 0.1149 -0.0025 0.0062 -0.1336 0.4557 0.0000
23.5900 0.2989 -0.0834 -0.0623 -0.0182 -0.0122 0.0607 841.5379 254.1700 45.0210 31.2518 2.9311 8.2250 29.7126 0.1148 -0.0025 0.0062 -0.1336 0.4557 0.0000
23.6000 0.2987 -0.0835 -0.0617 -0.0182 -0.0121 0.0601 841.8619 254.2035 45.0363 31.2494 2.9343 8.2215 29.7098 0.1148 -0.0024 0.0061 -0.1336 0.4558 0.0000
23.6100 0.2985 -0.0836 -0.0611 -0.0182 -0.0120 0.0595 842.1859 254.2369 45.0515 31.2470 2.9375 8.2180 29.7070 0.1148 -0.0024 0.0060 -0.1336 0.4558 0.0000
23.6200 0.2983 -0.0837 -0.0606 -0.0182 -0.0119 0.0589 842.5099 254.2702 45.0667 31.2446 2.9407 8.2146 29.7042 0.1148 -0.0024 0.0060 -0.1336 0.4558 0.0000
23.6300 0.2981 -0.0838 -0.0600 -0.0182 -0.0118 0.0583 842.8339 254.3035 45.0818 31.2423 2.9439 8.2113 29.7015 0.1148 -0.0024 0.0059 -0.1336 0.4558 0.0000
23.6400 0.2979 -0.0839 -0.0595 -0.0182 -0.0117 0.0577 843.1578 254.3367 45.0969 31.2400 2.9470 8.2080 29.6988 0.1148 -0.0024 0.0059 -0.1336 0.4558 0.0000
23.6500 0.2977 -0.0840 -0.0589 -0.0182 -0.0116 0.0571 843.4817 254.3698 45.1119 31.2378 2.9501 8.2047 29.6961 0.1147 -0.0023 0.0058 -0.1336 0.4559 0.0000
23.6600 0.2976 -0.0842 -0.0584 -0.0182 -0.0115 0.0565 843.8056 254.4028 45.1269 31.2356 2.9532 8.2015 29.6934 0.1147 -0.0023 0.0057 -0.1336 0.4559 0.0000
23.6700 0.2974 -0.0843 -0.0579 -0.0182 -0.0114 0.0559 844.1294 254.4358 45.1418 31.2334 2.9562 8.1983 29.6908 0.1147 -0.0023 0.0057 -0.1336 0.4559 0.0000
23.6800 0.2972 -0.0844 -0.0573 -0.0182 -0.0113 0.0553 844.4533 254.4687 45.1567 31.2312 2.9592 8.1952 29.6882 0.1147 -0.0023 0.0056 -0.1336 0.4559 0.0000
23.6900 0.2970 -0.0845 -0.0568 -0.0182 -0.0113 0.0547 844.7771 254.5015 45.1715 31.2291 2.9621 8.1921 29.6857 0.1147 -0.0022 0.0056 -0.1335 0.4559 0.0000
23.7000 0.2968 -0.0846 -0.0563 -0.0182 -0.0112 0.0541 845.1009 254.5343 45.1863 31.2270 2.9651 8.1891 29.6832 0.1147 -0.0022 0.0055 -0.1335 0.4559 0.0000
23.7100 0.2966 -0.0847 -0.0558 -0.0182 -0.0111 0.0536 845.4247 254.5670 45.2010 31.2249 2.9680 8.1861 29.6807 0.1147 -0.0022 0.0054 -0.1335 0.4560 0.0000
23.7200 0.2964 -0.0848 -0.0553 -0.0182 -0.0110 0.0530 845.7484 254.5996 45.2156 31.2229 2.9709 8.1831 29.6782 0.1147 -0.0022 0.0054 -0.1335 0.4560 0.0000
23.7300 0.2962 -0.0849 -0.0548 -0.0182 -0.0109 0.0525 846.0721 254.6322 45.2302 31.2208 2.9737 8.1802 29.6758 0.1147 -0.0022 0.0053 -0.1335 0.4560 0.0000
23.7400 0.2960 -0.0850 -0.0543 -0.0182 -0.0108 0.0519 846.3958 254.6647 45.2448 31.2189 2.9765 8.1774 29.6734 0.1146 -0.0021 0.0053 -0.1335 0.4560 0.0000
23.7500 0.2959 -0.0851 -0.0538 -0.0182 -0.0108 0.0514 846.7195 254.6971 45.2593 31.2169 2.9793 8.1746 29.6711 0.1146 -0.0021 0.0052 -0.1335 0.4560 0.0000
23.7600 0.2957 -0.0852 -0.0533 -0.0182 -0.0107 0.0508 847.0432 254.7294 45.2737 31.2150 2.9821 8.1718 29.6687 0.1146 -0.0021 0.0052 -0.1335 0.4560 0.0000
23.7700 0.2955 -0.0853 -0.0529 -0.0182 -0.0106 0.0503 847.3668 254.7617 45.2881 31.2131 2.9848 8.1691 29.6664 0.1146 -0.0021 0.0051 -0.1335 0.4560 0.0000
23.7800 0.2953 -0.0854 -0.0524 -0.0182 -0.0105 0.0497 847.6905 254.7940 45.3024 31.2112 2.9875 8.1664 29.6642 0.1146 -0.0021 0.0050 -0.1335 0.4561 0.0000
23.7900 0.2951 -0.0855 -0.0519 -0.0181 -0.0104 0.0492 848.0141 254.8261 45.3167 31.2094 2.9901 8.1638 29.6619 0.1146 -0.0020 0.0050 -0.1336 0.4561 0.0000
23.8000 0.2949 -0.0856 -0.0515 -0.0181 -0.0104 0.0487 848.3377 254.8582 45.3309 31.2076 2.9928 8.1612 29.6597 0.1146 -0.0020 0.0049 -0.1336 0.4561 0.0000
23.8100 0.2947 -0.0857 -0.0510 -0.0181 -0.0103 0.0481 848.6612 254.8903 45.3451 31.2058 2.9954 8.1586 29.6576 0.1146 -0.0020 0.0049 -0.1336 0.4561 0.0000
23.8200 0.2945 -0.0858 -0.0506 -0.0181 -0.0102 0.0476 848.9848 254.9223 45.3592 31.2041 2.9980 8.1561 29.6554 0.1146 -0.0020 0.0048 -0.1336 0.4561 0.0000
23.8300 0.2944 -0.0859 -0.0501 -0.0181 -0.0101 0.0471 849.3083 254.9542 45.3733 31.2023 3.0006 8.1536 29.6533 0.1146 -0.0020 0.0048 -0.1336 0.4561 0.0000
23.8400 0.2942 -0.0860 -0.0497 -0.0180 -0.0101 0.0466 849.6318 254.9860 45.3873 31.2006 3.0031 8.1512 29.6512 0.1146 -0.0019 0.0047 -0.1336 0.4562 0.0000
23.8500 0.2940 -0.0861 -0.0492 -0.0180 -0.0100 0.0461 849.9553 255.0178 45.4012 31.1990 3.0056 8.1488 29.6491 0.1146 -0.0019 0.0047 -0.1336 0.4562 0.0000
23.8600 0.2938 -0.0862 -0.0488 -0.0180 -0.0099 0.0456 850.2788 255.0496 45.4151 31.1973 3.0081 8.1464 29.6471 0.1146 -0.0019 0.0046 -0.1336 0.4562 0.0000
23.8700 0.2936 -0.0863 -0.0484 -0.0180 -0.0099 0.0451 850.6023 255.0812 45.4290 31.1957 3.0105 8.1441 29.6451 0.1146 -0.0019 0.0046 -0.1336 0.4562 0.0000
23.8800 0.2934 -0.0864 -0.0480 -0.0179 -0.0098 0.0446 850.9257 255.1128 45.4428 31.1941 3.0129 8.1419 29.6431 0.1146 -0.0019 0.0045 -0.1336 0.4562 0.0000
23.8900 0.2933 -0.0865 -0.0475 -0.0179 -0.0097 0.0441 851.2492 255.1444 45.4565 31.1926 3.0153 8.1396 29.6412 0.1146 -0.0019 0.0045 -0.1336 0.4562 0.0000
23.9000 0.2931 -0.0866 -0.0471 -0.0179 -0.0097 0.0436 851.5726 255.1759 45.4702 31.1910 3.0177 8.1374 29.6393 0.1146 -0.0018 0.0044 -0.1336 0.4562 0.0000
23.9100 0.2929 -0.0866 -0.0467 -0.0178 -0.0096 0.0432 851.8960 255.2073 45.4838 31.1895 3.0201 8.1353 29.6374 0.1147 -0.0018 0.0044 -0.1336 0.4563 0.0000
23.9200 0.2927 -0.0867 -0.0463 -0.0178 -0.0095 0.0427 852.2194 255.2387 45.4974 31.1880 3.0224 8.1332 29.6356 0.1147 -0.0018 0.0043 -0.1336 0.4563 0.0000
23.9300 0.2925 -0.0868 -0.0459 -0.0178 -0.0095 0.0422 852.5428 255.2700 45.5109 31.1866 3.0247 8.1311 29.6337 0.1147 -0.0018 0.0043 -0.1337 0.4563 0.0000
23.9400 0.2923 -0.0869 -0.0455 -0.0177 -0.0094 0.0417 852.8662 255.3013 45.5244 31.1851 3.0270 8.1290 29.6319 0.1147 -0.0018 0.0042 -0.1337 0.4563 0.0000
23.9500 0.2922 -0.0870 -0.0451 -0.0177 -0.0093 0.0413 853.1895 255.3325 45.5378 31.1837 3.0292 8.1270 29.6302 0.1147 -0.0017 0.0042 -0.1337 0.4563 0.0000
23.9600 0.2920 -0.0871 -0.0448 -0.0177 -0.0093 0.0408 853.5128 255.3636 45.5511 31.1824 3.0314 8.1251 29.6284 0.1147 -0.0017 0.0041 -0.1337 0.4563 0.0000
23.9700 0.2918 -0.0872 -0.0444 -0.0176 -0.0092 0.0404 853.8362 255.3947 45.5644 31.1810 3.0337 8.1231 29.6267 0.1147 -0.0017 0.0041 -0.1337 0.4563 0.0000
23.9800 0.2916 -0.0873 -0.0440 -0.0176 -0.0091 0.0399 854.1595 255.4258 45.5777 31.1797 3.0358 8.1212 29.6250 0.1147 -0.0017 0.0040 -0.1337 0.4563 0.0000
23.9900 0.2914 -0.0874 -0.0436 -0.0176 -0.0091 0.0395 854.4828 255.4568 45.5908 31.1784 3.0380 8.1194 29.6233 0.1147 -0.0017 0.0040 -0.1337 0.4564 0.0000
24.0000 0.2913 -0.0874 -0.0433 -0.0175 -0.0090 0.0390 854.8061 255.4877 45.6040 31.1771 3.0401 8.1176 29.6217 0.1147 -0.0017 0.0039 -0.1337 0.4564 0.0000
24.0100 0.2911 -0.0875 -0.0429 -0.0175 -0.0090 0.0386 855.1293 255.5186 45.6171 31.1759 3.0422 8.1158 29.6201 0.1148 -0.0016 0.0039 -0.1338 0.4564 0.0000
24.0200 0.2909 -0.0876 -0.0425 -0.0174 -0.0089 0.0381 855.4526 255.5494 45.6301 31.1746 3.0443 8.1140 29.6185 0.1148 -0.0016 0.0038 -0.1338 0.4564 0.0000
24.0300 0.2907 -0.0877 -0.0422 -0.0174 -0.0088 0.0377 855.7759 255.5802 45.6430 31.1734 3.0464 8.1123 29.6170 0.1148 -0.0016 0.0038 -0.1338 0.4564 0.0000
24.0400 0.2906 -0.0878 -0.0418 -0.0173 -0.0088 0.0373 856.0991 255.6109 45.6560 31.1722 3.0484 8.1106 29.6155 0.1148 -0.0016 0.0038 -0.1338 0.4564 0.0000
24.0500 0.2904 -0.0879 -0.0415 -0.0173 -0.0087 0.0369 856.4223 255.6416 45.6688 31.1711 3.0504 8.1090 29.6140 0.1148 -0.0016 0.0037 -0.1338 0.4564 0.0000
24.0600 0.2902 -0.0880 -0.0411 -0.0173 -0.0087 0.0364 856.7456 255.6722 45.6816 31.1700 3.0524 8.1074 29.6125 0.1148 -0.0016 0.0037 -0.1338 0.4564 0.0000
24.0700 0.2900 -0.0880 -0.0408 -0.0172 -0.0086 0.0360 857.0688 255.7027 45.6944 31.1688 3.0544 8.1058 29.6110 0.1148 -0.0016 0.0036 -0.1338 0.4565 0.0000
24.0800 0.2898 -0.0881 -0.0405 -0.0172 -0.0086 0.0356 857.3920 255.7332 45.7071 31.1678 3.0563 8.1043 29.6096 0.1149 -0.0015 0.0036 -0.1339 0.4565 0.0000
24.0900 0.2897 -0.0882 -0.0401 -0.0171 -0.0085 0.0352 857.7152 255.7637 45.7197 31.1667 3.0583 8.1028 29.6082 0.1149 -0.0015 0.0035 -0.1339 0.4565 0.0000
24.1000 0.2895 -0.0883 -0.0398 -0.0171 -0.0085 0.0348 858.0383 255.7941 45.7323 31.1657 3.0602 8.1013 29.6069 0.1149 -0.0015 0.0035 -0.1339 0.4565 0.0000
24.1100 0.2893 -0.0884 -0.0395 -0.0170 -0.0084 0.0344 858.3615 255.8245 45.7448 31.1647 3.0621 8.0998 29.6055 0.1149 -0.0015 0.0035 -0.1339 0.4565 0.0000
24.1200 0.2892 -0.0884 -0.0392 -0.0170 -0.0084 0.0340 858.6847 255.8548 45.7573 31.1637 3.0639 8.0984 29.6042 0.1149 -0.0015 0.0034 -0.1339 0.4565 0.0000
24.1300 0.2890 -0.0885 -0.0388 -0.0169 -0.0083 0.0336 859.0078 255.8850 45.7697 31.1627 3.0658 8.0971 29.6029 0.1150 -0.0015 0.0034 -0.1340 0.4565 0.0000
24.1400 0.2888 -0.0886 -0.0385 -0.0169 -0.0082 0.0332 859.3310 255.9153 45.7821 31.1617 3.0676 8.0957 29.6016 0.1150 -0.0015 0.0033 -0.1340 0.4565 0.0000
24.1500 0.2886 -0.0887 -0.0382 -0.0168 -0.0082 0.0328 859.6541 255.9454 45.7944 31.1608 3.0694 8.0944 29.6004 0.1150 -0.0014 0.0033 -0.1340 0.4566 0.0000
24.1600 0.2885 -0.0888 -0.0379 -0.0168 -0.0081 0.0325 859.9772 255.9755 45.8066 31.1599 3.0712 8.0931 29.5992 0.1150 -0.0014 0.0033 -0.1340 0.4566 0.0000
24.1700 0.2883 -0.0888 -0.0376 -0.0167 -0.0081 0.0321 860.3004 256.0056 45.8188 31.1590 3.0730 8.0919 29.5980 0.1150 -0.0014 0.0032 -0.1340 0.4566 0.0000
24.1800 0.2881 -0.0889 -0.0373 -0.0167 -0.0081 0.0317 860.6235 256.0356 45.8310 31.1582 3.0747 8.0906 29.5968 0.1151 -0.0014 0.0032 -0.1341 0.4566 0.0000
24.1900 0.2880 -0.0890 -0.0370 -0.0166 -0.0080 0.0313 860.9466 256.0656 45.8431 31.1573 3.0764 8.0894 29.5957 0.1151 -0.0014 0.0031 -0.1341 0.4566 0.0000
24.2000 0.2878 -0.0891 -0.0367 -0.0165 -0.0080 0.0310 861.2697 256.0955 45.8551 31.1565 3.0781 8.0883 29.5946 0.1151 -0.0014 0.0031 -0.1341 0.4566 0.0000
24.2100 0.2876 -0.0891 -0.0365 -0.0165 -0.0079 0.0306 861.5928 256.1254 45.8671 31.1557 3.0798 8.0871 29.5935 0.1151 -0.0014 0.0031 -0.1341 0.4566 0.0000
24.2200 0.2875 -0.0892 -0.0362 -0.0164 -0.0079 0.0303 861.9159 256.1552 45.8790 31.1550 3.0815 8.0860 29.5924 0.1152 -0.0013 0.0030 -0.1341 0.4566 0.0000
24.2300 0.2873 -0.0893 -0.0359 -0.0164 -0.0078 0.0299 862.2390 256.1850 45.8909 31.1542 3.0832 8.0850 29.5913 0.1152 -0.0013 0.0030 -0.1342 0.4566 0.0000
24.2400 0.2871 -0.0894 -0.0356 -0.0163 -0.0078 0.0295 862.5620 256.2148 45.9027 31.1535 3.0848 8.0839 29.5903 0.1152 -0.0013 0.0030 -0.1342 0.4567 0.0000
24.2500 0.2870 -0.0894 -0.0353 -0.0163 -0.0077 0.0292 862.8851 256.2445 45.9145 31.1528 3.0864 8.0829 29.5893 0.1152 -0.0013 0.0029 -0.1342 0.4567 0.0000
24.2600 0.2868 -0.0895 -0.0351 -0.0162 -0.0077 0.0289 863.2082 256.2741 45.9262 31.1521 3.0880 8.0819 29.5883 0.1153 -0.0013 0.0029 -0.1342 0.4567 0.0000
24.2700 0.2866 -0.0896 -0.0348 -0.0161 -0.0076 0.0285 863.5312 256.3037 45.9379 31.1514 3.0896 8.0810 29.5874 0.1153 -0.0013 0.0028 -0.1343 0.4567 0.0000
