     time [s]   theta [rad]     psi [rad]     phi [rad]     q [rad/s]     r [rad/s]     p [rad/s]        pn [m]        pe [m]         h [m]       u [m/s]       v [m/s]       w [m/s]      Va [m/s]   alpha [rad]    beta [rad] delta_a [rad] delta_e [rad]       delta_t delta_r [rad] u_r [m/s], ax [m/s^2], ay [m/s^2], az [m/s^2] 0.0000 0.0733 0.0000 -0.0000 0.0000 0.0000 0.0000 0.0000 0.0000 -0.0000 34.9061 0.0000 2.5621 35.0000 0.0733 0.0000 0.0000 0.0000 0.6031 0.0000 34.9061 5.4527 -0.0000 -9.1452
0.0100 0.0731 0.0000 -0.0000 -0.0365 0.0000 0.0000 0.3502 0.0000 -0.0000 34.9538 -0.0000 2.5619 35.0476 0.0732 -0.0000 -0.0000 0.2042 0.6031 0.0000 34.9538 5.3420 0.0000 -7.9076
0.0200 0.0722 0.0000 -0.0000 -0.1459 -0.0000 -0.0000 0.7010 0.0000 -0.0001 35.0024 0.0000 2.5486 35.0950 0.0727 0.0000 -0.0000 0.1457 0.6031 0.0000 35.0024 5.3469 -0.0000 -8.2612
0.0300 0.0703 0.0000 -0.0000 -0.2335 -0.0000 -0.0000 1.0521 0.0000 -0.0004 35.0535 0.0000 2.4976 35.1424 0.0711 0.0000 -0.0000 0.0005 0.6031 0.0000 35.0535 5.3816 -0.0000 -9.0883
0.0400 0.0678 0.0000 -0.0000 -0.2680 -0.0000 -0.0000 1.4038 0.0000 -0.0007 35.1065 0.0000 2.4170 35.1896 0.0687 0.0000 -0.0000 -0.1221 0.6031 0.0000 35.1065 5.3971 -0.0000 -9.7305
0.0500 0.0651 0.0000 -0.0000 -0.2574 -0.0000 -0.0000 1.7559 0.0000 -0.0010 35.1600 0.0000 2.3259 35.2369 0.0661 0.0000 -0.0000 -0.1848 0.6031 0.0000 35.1600 5.3823 -0.0000 -9.9847
0.0600 0.0627 0.0000 -0.0000 -0.2235 -0.0000 -0.0000 2.1085 0.0000 -0.0013 35.2129 0.0000 2.2399 35.2841 0.0635 0.0000 -0.0000 -0.1952 0.6031 0.0000 35.2129 5.3470 -0.0000 -9.9238
0.0700 0.0607 0.0000 -0.0000 -0.1853 -0.0000 -0.0000 2.4616 0.0000 -0.0016 35.2646 0.0000 2.1669 35.3312 0.0614 0.0000 -0.0000 -0.1777 0.6031 0.0000 35.2646 5.3045 -0.0000 -9.7107
0.0800 0.0590 0.0000 -0.0000 -0.1531 -0.0000 -0.0000 2.8152 0.0000 -0.0018 35.3153 0.0000 2.1083 35.3782 0.0596 0.0000 -0.0000 -0.1541 0.6031 0.0000 35.3153 5.2638 -0.0000 -9.4823
0.0900 0.0576 0.0000 -0.0000 -0.1292 -0.0000 -0.0000 3.1692 0.0000 -0.0020 35.3650 0.0000 2.0618 35.4251 0.0582 0.0000 0.0000 -0.1361 0.6031 0.0000 35.3650 5.2285 -0.0000 -9.3097
0.1000 0.0564 0.0000 -0.0000 -0.1117 -0.0000 -0.0000 3.5237 0.0000 -0.0023 35.4140 0.0000 2.0241 35.4718 0.0571 0.0000 0.0000 -0.1269 0.6031 0.0000 35.4140 5.1988 -0.0000 -9.2065
0.1100 0.0553 0.0000 -0.0000 -0.0973 -0.0000 -0.0000 3.8786 0.0000 -0.0025 35.4625 0.0000 1.9931 35.5185 0.0561 0.0000 0.0000 -0.1243 0.6031 0.0000 35.4625 5.1730 -0.0000 -9.1557
0.1200 0.0544 0.0000 -0.0000 -0.0837 -0.0000 -0.0000 4.2340 0.0000 -0.0028 35.5106 0.0000 1.9674 35.5650 0.0553 0.0000 0.0000 -0.1247 0.6031 0.0000 35.5106 5.1496 -0.0000 -9.1334
0.1300 0.0537 0.0000 -0.0000 -0.0698 -0.0000 -0.0000 4.5899 0.0000 -0.0032 35.5582 0.0000 1.9467 35.6114 0.0547 0.0000 0.0000 -0.1254 0.6031 0.0000 35.5582 5.1273 -0.0000 -9.1219
0.1400 0.0530 0.0000 -0.0000 -0.0555 0.0000 -0.0000 4.9463 0.0000 -0.0036 35.6053 0.0000 1.9311 35.6576 0.0542 0.0000 0.0000 -0.1253 0.6031 0.0000 35.6053 5.1059 -0.0000 -9.1135
0.1500 0.0526 0.0000 -0.0000 -0.0412 0.0000 -0.0000 5.3031 0.0000 -0.0040 35.6520 0.0000 1.9206 35.7037 0.0538 0.0000 0.0000 -0.1242 0.6031 0.0000 35.6520 5.0851 -0.0000 -9.1073
0.1600 0.0522 0.0000 -0.0000 -0.0273 0.0000 -0.0000 5.6603 0.0000 -0.0045 35.6983 0.0000 1.9151 35.7496 0.0536 0.0000 0.0000 -0.1225 0.6031 0.0000 35.6983 5.0653 -0.0000 -9.1060
0.1700 0.0520 0.0000 -0.0000 -0.0141 0.0000 -0.0000 6.0181 0.0000 -0.0050 35.7442 0.0000 1.9145 35.7954 0.0535 0.0000 0.0000 -0.1207 0.6031 0.0000 35.7442 5.0463 -0.0000 -9.1123
0.1800 0.0519 0.0000 -0.0000 -0.0016 0.0000 -0.0000 6.3762 0.0000 -0.0056 35.7896 0.0000 1.9183 35.8410 0.0535 0.0000 -0.0000 -0.1191 0.6031 0.0000 35.7896 5.0284 -0.0000 -9.1278
0.1900 0.0520 0.0000 -0.0000 0.0103 0.0000 -0.0000 6.7349 0.0000 -0.0062 35.8346 0.0000 1.9263 35.8864 0.0537 0.0000 -0.0000 -0.1179 0.6031 0.0000 35.8346 5.0115 -0.0000 -9.1526
0.2000 0.0521 0.0000 -0.0000 0.0215 0.0000 -0.0000 7.0940 0.0000 -0.0068 35.8793 0.0000 1.9381 35.9316 0.0540 0.0000 -0.0000 -0.1169 0.6031 0.0000 35.8793 4.9955 -0.0000 -9.1859
0.2100 0.0524 0.0000 -0.0000 0.0323 0.0000 -0.0000 7.4535 0.0000 -0.0075 35.9235 0.0000 1.9535 35.9766 0.0543 0.0000 -0.0000 -0.1162 0.6031 0.0000 35.9235 4.9803 -0.0000 -9.2267
0.2200 0.0528 0.0000 -0.0000 0.0426 0.0000 -0.0000 7.8135 0.0000 -0.0082 35.9673 0.0000 1.9723 36.0214 0.0548 0.0000 -0.0000 -0.1155 0.6031 0.0000 35.9673 4.9660 -0.0000 -9.2743
0.2300 0.0532 0.0000 -0.0000 0.0524 0.0000 -0.0000 8.1739 0.0000 -0.0089 36.0108 0.0000 1.9943 36.0660 0.0553 0.0000 -0.0000 -0.1150 0.6031 0.0000 36.0108 4.9524 -0.0000 -9.3279
0.2400 0.0538 0.0000 -0.0000 0.0619 0.0000 -0.0000 8.5348 0.0000 -0.0097 36.0539 0.0000 2.0192 36.1104 0.0559 0.0000 -0.0000 -0.1145 0.6031 0.0000 36.0539 4.9396 -0.0000 -9.3871
0.2500 0.0545 0.0000 -0.0000 0.0709 0.0000 -0.0000 8.8961 0.0000 -0.0105 36.0966 0.0000 2.0468 36.1545 0.0566 0.0000 -0.0000 -0.1141 0.6031 0.0000 36.0966 4.9274 -0.0000 -9.4516
0.2600 0.0552 0.0000 -0.0000 0.0795 0.0000 -0.0000 9.2579 0.0000 -0.0112 36.1388 0.0000 2.0769 36.1985 0.0574 0.0000 -0.0000 -0.1138 0.6031 0.0000 36.1388 4.9160 -0.0000 -9.5212
0.2700 0.0561 0.0000 -0.0000 0.0878 0.0000 -0.0000 9.6201 0.0000 -0.0120 36.1808 0.0000 2.1094 36.2422 0.0582 0.0000 -0.0000 -0.1136 0.6031 0.0000 36.1808 4.9053 -0.0000 -9.5956
0.2800 0.0570 0.0000 -0.0000 0.0956 -0.0000 -0.0000 9.9827 0.0000 -0.0128 36.2223 -0.0000 2.1441 36.2857 0.0591 -0.0000 -0.0000 -0.1134 0.6031 0.0000 36.2223 4.8952 0.0000 -9.6744
0.2900 0.0580 0.0000 -0.0000 0.1031 -0.0000 -0.0000 10.3458 0.0000 -0.0136 36.2634 -0.0000 2.1808 36.3289 0.0601 -0.0000 -0.0000 -0.1133 0.6031 0.0000 36.2634 4.8859 0.0000 -9.7573
0.3000 0.0590 0.0000 -0.0000 0.1103 -0.0000 -0.0000 10.7093 0.0000 -0.0143 36.3041 -0.0000 2.2194 36.3719 0.0611 -0.0000 -0.0000 -0.1133 0.6031 0.0000 36.3041 4.8772 0.0000 -9.8440
0.3100 0.0602 0.0000 -0.0000 0.1171 -0.0000 -0.0000 11.0732 0.0000 -0.0150 36.3445 -0.0000 2.2596 36.4147 0.0621 -0.0000 -0.0000 -0.1134 0.6031 0.0000 36.3445 4.8691 0.0000 -9.9342
0.3200 0.0614 0.0000 -0.0000 0.1236 -0.0000 -0.0000 11.4376 0.0000 -0.0157 36.3844 -0.0000 2.3014 36.4571 0.0632 -0.0000 -0.0000 -0.1135 0.6031 0.0000 36.3844 4.8617 0.0000 -10.0276
0.3300 0.0627 0.0000 -0.0000 0.1298 -0.0000 -0.0000 11.8024 0.0000 -0.0163 36.4240 -0.0000 2.3446 36.4994 0.0643 -0.0000 -0.0000 -0.1137 0.6031 0.0000 36.4240 4.8548 0.0000 -10.1239
0.3400 0.0640 0.0000 -0.0000 0.1357 -0.0000 -0.0000 12.1676 0.0000 -0.0169 36.4632 -0.0000 2.3891 36.5413 0.0654 -0.0000 -0.0000 -0.1139 0.6031 0.0000 36.4632 4.8486 0.0000 -10.2229
0.3500 0.0654 0.0000 -0.0000 0.1413 -0.0000 -0.0000 12.5332 0.0000 -0.0174 36.5019 0.0000 2.4347 36.5831 0.0666 0.0000 -0.0000 -0.1142 0.6031 0.0000 36.5019 4.8430 -0.0000 -10.3244
0.3600 0.0668 0.0000 -0.0000 0.1467 -0.0000 -0.0000 12.8992 0.0000 -0.0178 36.5403 0.0000 2.4813 36.6245 0.0678 0.0000 0.0000 -0.1145 0.6031 0.0000 36.5403 4.8379 -0.0000 -10.4280
0.3700 0.0683 0.0000 -0.0000 0.1518 -0.0000 -0.0000 13.2657 0.0000 -0.0181 36.5783 0.0000 2.5289 36.6657 0.0690 0.0000 0.0000 -0.1149 0.6031 0.0000 36.5783 4.8334 -0.0000 -10.5336
0.3800 0.0698 0.0000 -0.0000 0.1566 -0.0000 -0.0000 13.6326 0.0000 -0.0183 36.6160 0.0000 2.5772 36.7065 0.0703 0.0000 0.0000 -0.1153 0.6031 0.0000 36.6160 4.8295 -0.0000 -10.6410
0.3900 0.0714 0.0000 -0.0000 0.1612 -0.0000 -0.0000 13.9998 0.0000 -0.0184 36.6532 -0.0000 2.6263 36.7471 0.0715 -0.0000 0.0000 -0.1157 0.6031 0.0000 36.6532 4.8261 0.0000 -10.7500
0.4000 0.0731 0.0000 -0.0000 0.1656 -0.0000 -0.0000 14.3675 0.0000 -0.0184 36.6900 -0.0000 2.6759 36.7875 0.0728 -0.0000 0.0000 -0.1162 0.6031 0.0000 36.6900 4.8232 0.0000 -10.8603
0.4100 0.0747 0.0000 -0.0000 0.1697 -0.0000 -0.0000 14.7356 0.0000 -0.0182 36.7265 -0.0000 2.7261 36.8275 0.0741 -0.0000 0.0000 -0.1167 0.6031 0.0000 36.7265 4.8208 0.0000 -10.9718
0.4200 0.0765 0.0000 -0.0000 0.1737 -0.0000 -0.0000 15.1041 0.0000 -0.0179 36.7625 -0.0000 2.7766 36.8672 0.0754 -0.0000 0.0000 -0.1172 0.6031 0.0000 36.7625 4.8189 0.0000 -11.0843
0.4300 0.0782 0.0000 -0.0000 0.1774 -0.0000 -0.0000 15.4729 0.0000 -0.0174 36.7982 -0.0000 2.8275 36.9067 0.0767 -0.0000 0.0000 -0.1177 0.6031 0.0000 36.7982 4.8175 0.0000 -11.1976
0.4400 0.0800 0.0000 -0.0000 0.1809 -0.0000 0.0000 15.8422 0.0000 -0.0168 36.8335 -0.0000 2.8787 36.9459 0.0780 -0.0000 0.0000 -0.1183 0.6031 0.0000 36.8335 4.8165 0.0000 -11.3116
0.4500 0.0818 0.0000 -0.0000 0.1843 0.0000 0.0000 16.2118 0.0000 -0.0159 36.8685 -0.0000 2.9300 36.9847 0.0793 -0.0000 0.0000 -0.1189 0.6031 0.0000 36.8685 4.8160 0.0000 -11.4261
0.4600 0.0837 0.0000 -0.0000 0.1875 0.0000 0.0000 16.5819 0.0000 -0.0149 36.9030 -0.0000 2.9814 37.0233 0.0806 -0.0000 0.0000 -0.1195 0.6031 0.0000 36.9030 4.8158 0.0000 -11.5409
0.4700 0.0856 0.0000 -0.0000 0.1904 0.0000 0.0000 16.9523 0.0000 -0.0136 36.9372 -0.0000 3.0329 37.0615 0.0819 -0.0000 0.0000 -0.1201 0.6031 0.0000 36.9372 4.8161 0.0000 -11.6560
0.4800 0.0875 0.0000 -0.0000 0.1933 0.0000 0.0000 17.3231 0.0000 -0.0122 36.9710 -0.0000 3.0843 37.0995 0.0832 -0.0000 0.0000 -0.1207 0.6031 0.0000 36.9710 4.8168 0.0000 -11.7712
0.4900 0.0895 0.0000 -0.0000 0.1959 0.0000 0.0000 17.6943 0.0000 -0.0105 37.0045 -0.0000 3.1356 37.1371 0.0845 -0.0000 0.0000 -0.1214 0.6031 0.0000 37.0045 4.8178 0.0000 -11.8864
0.5000 0.0914 0.0000 -0.0000 0.1984 -0.0000 0.0000 18.0658 0.0000 -0.0085 37.0376 -0.0000 3.1868 37.1744 0.0858 -0.0000 0.0000 -0.1220 0.6031 0.0000 37.0376 4.8192 0.0000 -12.0014
0.5100 0.0934 0.0000 -0.0000 0.2008 -0.0000 0.0000 18.4378 0.0000 -0.0063 37.0703 -0.0000 3.2378 37.2115 0.0871 -0.0000 0.0000 -0.1226 0.6031 0.0000 37.0703 4.8209 0.0000 -12.1162
0.5200 0.0954 0.0000 -0.0000 0.2030 -0.0000 0.0000 18.8100 0.0000 -0.0038 37.1027 -0.0000 3.2886 37.2482 0.0884 -0.0000 0.0000 -0.1233 0.6031 0.0000 37.1027 4.8229 0.0000 -12.2306
0.5300 0.0975 0.0000 -0.0000 0.2051 -0.0000 0.0000 19.1827 0.0000 -0.0011 37.1348 -0.0000 3.3390 37.2846 0.0897 -0.0000 0.0000 -0.1240 0.6031 0.0000 37.1348 4.8251 0.0000 -12.3445
0.5400 0.0995 0.0000 -0.0000 0.2070 -0.0000 0.0000 19.5557 0.0000 0.0020 37.1665 -0.0000 3.3891 37.3207 0.0909 -0.0000 0.0000 -0.1246 0.6031 0.0000 37.1665 4.8277 0.0000 -12.4579
0.5500 0.1016 0.0000 -0.0000 0.2089 -0.0000 0.0000 19.9291 0.0000 0.0054 37.1978 -0.0000 3.4388 37.3564 0.0922 -0.0000 0.0000 -0.1253 0.6031 0.0000 37.1978 4.8305 0.0000 -12.5706
0.5600 0.1037 0.0000 -0.0000 0.2105 -0.0000 0.0000 20.3028 0.0000 0.0091 37.2288 -0.0000 3.4881 37.3919 0.0934 -0.0000 0.0000 -0.1260 0.6031 0.0000 37.2288 4.8335 0.0000 -12.6825
0.5700 0.1058 0.0000 -0.0000 0.2121 -0.0000 0.0000 20.6769 0.0000 0.0131 37.2595 -0.0000 3.5369 37.4270 0.0946 -0.0000 0.0000 -0.1266 0.6031 0.0000 37.2595 4.8367 0.0000 -12.7937
0.5800 0.1080 0.0000 -0.0000 0.2136 -0.0000 0.0000 21.0513 0.0000 0.0174 37.2898 -0.0000 3.5853 37.4618 0.0959 -0.0000 0.0000 -0.1273 0.6031 0.0000 37.2898 4.8401 0.0000 -12.9039
0.5900 0.1101 0.0000 -0.0000 0.2149 -0.0000 0.0000 21.4261 0.0000 0.0222 37.3198 -0.0000 3.6331 37.4963 0.0970 -0.0000 0.0000 -0.1279 0.6031 0.0000 37.3198 4.8437 0.0000 -13.0132
0.6000 0.1123 0.0000 -0.0000 0.2162 -0.0000 0.0000 21.8012 0.0000 0.0272 37.3495 -0.0000 3.6803 37.5304 0.0982 -0.0000 0.0000 -0.1286 0.6031 0.0000 37.3495 4.8474 0.0000 -13.1214
0.6100 0.1144 0.0000 -0.0000 0.2174 -0.0000 0.0000 22.1766 0.0000 0.0327 37.3789 -0.0000 3.7270 37.5643 0.0994 -0.0000 0.0000 -0.1293 0.6031 0.0000 37.3789 4.8512 0.0000 -13.2286
0.6200 0.1166 0.0000 -0.0000 0.2184 -0.0000 0.0000 22.5524 0.0000 0.0385 37.4080 -0.0000 3.7730 37.5978 0.1005 -0.0000 0.0000 -0.1299 0.6031 0.0000 37.4080 4.8552 0.0000 -13.3346
0.6300 0.1188 0.0000 -0.0000 0.2194 -0.0000 0.0000 22.9284 0.0000 0.0448 37.4367 -0.0000 3.8184 37.6310 0.1016 -0.0000 0.0000 -0.1305 0.6031 0.0000 37.4367 4.8592 0.0000 -13.4393
0.6400 0.1210 0.0000 -0.0000 0.2203 -0.0000 0.0000 23.3049 0.0000 0.0515 37.4652 -0.0000 3.8631 37.6638 0.1027 -0.0000 0.0000 -0.1312 0.6031 0.0000 37.4652 4.8634 0.0000 -13.5429
0.6500 0.1232 0.0000 -0.0000 0.2210 -0.0000 0.0000 23.6816 0.0000 0.0585 37.4933 -0.0000 3.9072 37.6964 0.1038 -0.0000 0.0000 -0.1318 0.6031 0.0000 37.4933 4.8675 0.0000 -13.6451
0.6600 0.1254 0.0000 -0.0000 0.2218 -0.0000 0.0000 24.0586 0.0000 0.0661 37.5212 -0.0000 3.9506 37.7286 0.1049 -0.0000 0.0000 -0.1324 0.6031 0.0000 37.5212 4.8718 0.0000 -13.7459
0.6700 0.1276 0.0000 -0.0000 0.2224 -0.0000 0.0000 24.4360 0.0000 0.0740 37.5487 -0.0000 3.9932 37.7604 0.1059 -0.0000 0.0000 -0.1330 0.6031 0.0000 37.5487 4.8760 0.0000 -13.8453
0.6800 0.1299 0.0000 -0.0000 0.2229 -0.0000 0.0000 24.8137 0.0000 0.0824 37.5760 -0.0000 4.0351 37.7920 0.1070 -0.0000 0.0000 -0.1336 0.6031 0.0000 37.5760 4.8803 0.0000 -13.9434
0.6900 0.1321 0.0000 -0.0000 0.2234 -0.0000 0.0000 25.1917 0.0000 0.0913 37.6029 -0.0000 4.0763 37.8232 0.1080 -0.0000 0.0000 -0.1342 0.6031 0.0000 37.6029 4.8846 0.0000 -14.0399
0.7000 0.1343 0.0000 -0.0000 0.2238 -0.0000 0.0000 25.5699 0.0000 0.1007 37.6296 -0.0000 4.1167 37.8541 0.1090 -0.0000 0.0000 -0.1348 0.6031 0.0000 37.6296 4.8888 0.0000 -14.1349
0.7100 0.1366 0.0000 -0.0000 0.2242 -0.0000 0.0000 25.9485 0.0000 0.1105 37.6560 -0.0000 4.1563 37.8847 0.1099 -0.0000 0.0000 -0.1354 0.6031 0.0000 37.6560 4.8930 0.0000 -14.2284
0.7200 0.1388 0.0000 -0.0000 0.2245 -0.0000 0.0000 26.3273 0.0000 0.1209 37.6822 -0.0000 4.1952 37.9150 0.1109 -0.0000 0.0000 -0.1359 0.6031 0.0000 37.6822 4.8972 0.0000 -14.3204
0.7300 0.1411 0.0000 -0.0000 0.2247 -0.0000 0.0000 26.7065 0.0000 0.1317 37.7080 -0.0000 4.2333 37.9449 0.1118 -0.0000 0.0000 -0.1365 0.6031 0.0000 37.7080 4.9013 0.0000 -14.4107
0.7400 0.1433 0.0000 -0.0000 0.2248 -0.0000 0.0000 27.0859 0.0000 0.1431 37.7336 -0.0000 4.2705 37.9745 0.1127 -0.0000 0.0000 -0.1370 0.6031 0.0000 37.7336 4.9053 0.0000 -14.4995
0.7500 0.1456 0.0000 -0.0000 0.2249 -0.0000 0.0000 27.4656 0.0000 0.1550 37.7589 -0.0000 4.3070 38.0038 0.1136 -0.0000 0.0000 -0.1376 0.6031 0.0000 37.7589 4.9092 0.0000 -14.5866
0.7600 0.1478 0.0000 -0.0000 0.2250 -0.0000 0.0000 27.8456 0.0000 0.1674 37.7840 -0.0000 4.3426 38.0327 0.1144 -0.0000 0.0000 -0.1381 0.6031 0.0000 37.7840 4.9131 0.0000 -14.6721
0.7700 0.1501 0.0000 -0.0000 0.2250 -0.0000 0.0000 28.2259 0.0000 0.1804 37.8088 -0.0000 4.3775 38.0613 0.1153 -0.0000 0.0000 -0.1386 0.6031 0.0000 37.8088 4.9168 0.0000 -14.7559
0.7800 0.1523 0.0000 -0.0000 0.2249 -0.0000 0.0000 28.6064 0.0000 0.1939 37.8333 -0.0000 4.4115 38.0896 0.1161 -0.0000 0.0000 -0.1391 0.6031 0.0000 37.8333 4.9204 0.0000 -14.8381
0.7900 0.1546 0.0000 -0.0000 0.2248 -0.0000 0.0000 28.9871 0.0000 0.2080 37.8576 -0.0000 4.4447 38.1176 0.1169 -0.0000 0.0000 -0.1396 0.6031 0.0000 37.8576 4.9239 0.0000 -14.9185
0.8000 0.1568 0.0000 -0.0000 0.2247 -0.0000 0.0000 29.3682 0.0000 0.2226 37.8816 -0.0000 4.4771 38.1453 0.1176 -0.0000 0.0000 -0.1400 0.6031 0.0000 37.8816 4.9272 0.0000 -14.9973
0.8100 0.1591 0.0000 -0.0000 0.2245 -0.0000 0.0000 29.7495 0.0000 0.2378 37.9054 -0.0000 4.5086 38.1726 0.1184 -0.0000 0.0000 -0.1405 0.6031 0.0000 37.9054 4.9304 0.0000 -15.0743
0.8200 0.1613 0.0000 -0.0000 0.2242 -0.0000 0.0000 30.1310 0.0000 0.2536 37.9289 -0.0000 4.5393 38.1996 0.1191 -0.0000 0.0000 -0.1409 0.6031 0.0000 37.9289 4.9335 0.0000 -15.1497
0.8300 0.1635 0.0000 -0.0000 0.2240 -0.0000 0.0000 30.5128 0.0000 0.2700 37.9522 -0.0000 4.5692 38.2263 0.1198 -0.0000 0.0000 -0.1413 0.6031 0.0000 37.9522 4.9363 0.0000 -15.2233
0.8400 0.1658 0.0000 -0.0000 0.2237 -0.0000 0.0000 30.8948 0.0000 0.2871 37.9753 -0.0000 4.5983 38.2527 0.1205 -0.0000 0.0000 -0.1418 0.6031 0.0000 37.9753 4.9390 0.0000 -15.2953
0.8500 0.1680 0.0000 -0.0000 0.2233 -0.0000 0.0000 31.2770 0.0000 0.3047 37.9981 -0.0000 4.6266 38.2787 0.1212 -0.0000 0.0000 -0.1422 0.6031 0.0000 37.9981 4.9415 0.0000 -15.3655
0.8600 0.1702 0.0000 -0.0000 0.2229 -0.0000 0.0000 31.6595 0.0000 0.3229 38.0207 -0.0000 4.6540 38.3045 0.1218 -0.0000 0.0000 -0.1425 0.6031 0.0000 38.0207 4.9439 0.0000 -15.4339
0.8700 0.1725 0.0000 -0.0000 0.2225 -0.0000 0.0000 32.0422 0.0000 0.3418 38.0430 -0.0000 4.6806 38.3299 0.1224 -0.0000 0.0000 -0.1429 0.6031 0.0000 38.0430 4.9460 0.0000 -15.5007
0.8800 0.1747 0.0000 -0.0000 0.2220 -0.0000 0.0000 32.4252 0.0000 0.3613 38.0651 -0.0000 4.7064 38.3550 0.1230 -0.0000 0.0000 -0.1433 0.6031 0.0000 38.0651 4.9479 0.0000 -15.5657
0.8900 0.1769 0.0000 -0.0000 0.2215 -0.0000 0.0000 32.8083 0.0000 0.3814 38.0870 -0.0000 4.7314 38.3798 0.1236 -0.0000 0.0000 -0.1436 0.6031 0.0000 38.0870 4.9496 0.0000 -15.6291
0.9000 0.1791 0.0000 -0.0000 0.2210 -0.0000 0.0000 33.1917 0.0000 0.4022 38.1087 -0.0000 4.7555 38.4042 0.1241 -0.0000 0.0000 -0.1440 0.6031 0.0000 38.1087 4.9512 0.0000 -15.6907
0.9100 0.1813 0.0000 -0.0000 0.2205 -0.0000 0.0000 33.5752 0.0000 0.4236 38.1301 -0.0000 4.7789 38.4284 0.1247 -0.0000 0.0000 -0.1443 0.6031 0.0000 38.1301 4.9525 0.0000 -15.7506
0.9200 0.1835 0.0000 -0.0000 0.2199 -0.0000 0.0000 33.9590 0.0000 0.4457 38.1513 -0.0000 4.8015 38.4522 0.1252 -0.0000 0.0000 -0.1446 0.6031 0.0000 38.1513 4.9535 0.0000 -15.8088
0.9300 0.1857 0.0000 -0.0000 0.2193 -0.0000 0.0000 34.3430 0.0000 0.4684 38.1723 -0.0000 4.8232 38.4758 0.1257 -0.0000 0.0000 -0.1449 0.6031 0.0000 38.1723 4.9544 0.0000 -15.8653
0.9400 0.1879 0.0000 -0.0000 0.2186 -0.0000 0.0000 34.7271 0.0000 0.4919 38.1930 -0.0000 4.8442 38.4990 0.1262 -0.0000 0.0000 -0.1452 0.6031 0.0000 38.1930 4.9550 0.0000 -15.9201
0.9500 0.1901 0.0000 -0.0000 0.2180 -0.0000 0.0000 35.1115 0.0000 0.5160 38.2136 -0.0000 4.8644 38.5219 0.1266 -0.0000 0.0000 -0.1454 0.6031 0.0000 38.2136 4.9555 0.0000 -15.9733
0.9600 0.1923 0.0000 -0.0000 0.2173 -0.0000 0.0000 35.4960 0.0000 0.5407 38.2339 -0.0000 4.8838 38.5446 0.1270 -0.0000 0.0000 -0.1457 0.6031 0.0000 38.2339 4.9557 0.0000 -16.0248
0.9700 0.1944 0.0000 -0.0000 0.2166 -0.0000 0.0000 35.8807 0.0000 0.5662 38.2540 -0.0000 4.9025 38.5669 0.1275 -0.0000 0.0000 -0.1459 0.6031 0.0000 38.2540 4.9556 0.0000 -16.0746
0.9800 0.1966 0.0000 -0.0000 0.2159 -0.0000 0.0000 36.2656 0.0000 0.5924 38.2739 -0.0000 4.9204 38.5889 0.1279 -0.0000 0.0000 -0.1462 0.6031 0.0000 38.2739 4.9553 0.0000 -16.1228
0.9900 0.1988 0.0000 -0.0000 0.2151 -0.0000 0.0000 36.6507 0.0000 0.6192 38.2936 -0.0000 4.9376 38.6106 0.1282 -0.0000 0.0000 -0.1464 0.6031 0.0000 38.2936 4.9548 0.0000 -16.1693
1.0000 0.2009 0.0000 -0.0000 0.2144 -0.0000 0.0000 37.0359 0.0000 0.6468 38.3130 -0.0000 4.9540 38.6320 0.1286 -0.0000 0.0000 -0.1466 0.6031 0.0000 38.3130 4.9541 0.0000 -16.2142
1.0100 0.2031 0.0000 -0.0000 0.2136 -0.0000 0.0000 37.4213 0.0000 0.6751 38.3323 -0.0000 4.9696 38.6531 0.1289 -0.0000 0.0000 -0.1468 0.6031 0.0000 38.3323 4.9531 0.0000 -16.2576
1.0200 0.2052 0.0000 -0.0000 0.2128 -0.0000 0.0000 37.8068 0.0000 0.7041 38.3513 -0.0000 4.9845 38.6739 0.1292 -0.0000 0.0000 -0.1470 0.6031 0.0000 38.3513 4.9519 0.0000 -16.2993
1.0300 0.2073 0.0000 -0.0000 0.2120 -0.0000 0.0000 38.1925 0.0000 0.7338 38.3702 -0.0000 4.9988 38.6944 0.1295 -0.0000 0.0000 -0.1472 0.6031 0.0000 38.3702 4.9505 0.0000 -16.3394
1.0400 0.2094 0.0000 -0.0000 0.2111 -0.0000 0.0000 38.5784 0.0000 0.7642 38.3888 -0.0000 5.0123 38.7147 0.1298 -0.0000 0.0000 -0.1473 0.6031 0.0000 38.3888 4.9488 0.0000 -16.3780
1.0500 0.2115 0.0000 -0.0000 0.2103 -0.0000 0.0000 38.9644 0.0000 0.7953 38.4072 -0.0000 5.0250 38.7346 0.1301 -0.0000 0.0000 -0.1475 0.6031 0.0000 38.4072 4.9469 0.0000 -16.4150
1.0600 0.2136 0.0000 -0.0000 0.2094 -0.0000 0.0000 39.3505 0.0000 0.8272 38.4255 -0.0000 5.0371 38.7542 0.1303 -0.0000 0.0000 -0.1476 0.6031 0.0000 38.4255 4.9448 0.0000 -16.4505
1.0700 0.2157 0.0000 -0.0000 0.2085 -0.0000 0.0000 39.7368 0.0000 0.8598 38.4435 -0.0000 5.0485 38.7736 0.1306 -0.0000 0.0000 -0.1477 0.6031 0.0000 38.4435 4.9425 0.0000 -16.4845
1.0800 0.2178 0.0000 -0.0000 0.2077 -0.0000 0.0000 40.1232 0.0000 0.8931 38.4613 -0.0000 5.0593 38.7926 0.1308 -0.0000 0.0000 -0.1478 0.6031 0.0000 38.4613 4.9399 0.0000 -16.5170
