     time [s]   theta [rad]     psi [rad]     phi [rad]     q [rad/s]     r [rad/s]     p [rad/s]        pn [m]        pe [m]         h [m]       u [m/s]       v [m/s]       w [m/s]      Va [m/s]   alpha [rad]    beta [rad] delta_a [rad] delta_e [rad]       delta_t delta_r [rad]     u_r [m/s]
0.0000 0.0733 0.0000 -0.0000 0.0000 0.0000 0.0000 0.0000 0.0000 -0.0000 34.9061 0.0000 2.5621 35.0000 0.0733 0.0000 0.3491 0.0000 0.6031 0.0000 34.9061
0.0100 0.0731 0.0009 0.0022 -0.0364 0.1683 0.4176 0.3502 0.0000 -0.0000 34.9538 -0.0244 2.5619 35.0476 0.0732 -0.0007 0.3491 0.2042 0.6031 0.0000 34.9538
0.0200 0.0722 0.0033 0.0084 -0.1448 0.3177 0.7865 0.7010 0.0000 -0.0001 35.0022 -0.0937 2.5492 35.0950 0.0727 -0.0027 0.3491 0.1459 0.6031 0.0000 35.0022
0.0300 0.0702 0.0071 0.0182 -0.2303 0.4483 1.1143 1.0521 0.0000 -0.0004 35.0527 -0.2023 2.5002 35.1424 0.0712 -0.0058 0.3368 0.0018 0.6031 0.0000 35.0527
0.0400 0.0677 0.0121 0.0311 -0.2615 0.5545 1.3927 1.4038 0.0001 -0.0007 35.1043 -0.3441 2.4248 35.1896 0.0690 -0.0098 0.2891 -0.1185 0.6031 0.0000 35.1043
0.0500 0.0649 0.0179 0.0464 -0.2471 0.6197 1.5855 1.7559 0.0002 -0.0010 35.1551 -0.5095 2.3428 35.2368 0.0665 -0.0145 0.2442 -0.1776 0.6031 0.0000 35.1551
0.0600 0.0622 0.0241 0.0633 -0.2099 0.6486 1.7065 2.1085 0.0003 -0.0013 35.2040 -0.6867 2.2708 35.2839 0.0644 -0.0195 0.2072 -0.1840 0.6031 0.0000 35.2040
0.0700 0.0599 0.0305 0.0811 -0.1697 0.6480 1.7738 2.4616 0.0006 -0.0016 35.2506 -0.8655 2.2163 35.3308 0.0628 -0.0245 0.1772 -0.1634 0.6031 0.0000 35.2506
0.0800 0.0578 0.0367 0.0993 -0.1369 0.6245 1.8017 2.8151 0.0010 -0.0018 35.2951 -1.0374 2.1798 35.3776 0.0617 -0.0293 0.1527 -0.1383 0.6031 0.0000 35.2951
0.0900 0.0559 0.0426 0.1177 -0.1136 0.5834 1.8009 3.1692 0.0016 -0.0021 35.3382 -1.1958 2.1580 35.4242 0.0610 -0.0338 0.1325 -0.1209 0.6031 0.0000 35.3382
0.1000 0.0541 0.0480 0.1359 -0.0975 0.5294 1.7788 3.5236 0.0024 -0.0023 35.3803 -1.3355 2.1467 35.4706 0.0606 -0.0377 0.1156 -0.1139 0.6031 0.0000 35.3803
0.1100 0.0525 0.0528 0.1537 -0.0849 0.4661 1.7412 3.8786 0.0034 -0.0027 35.4222 -1.4531 2.1424 35.5167 0.0604 -0.0409 0.1013 -0.1145 0.6031 0.0000 35.4222
0.1200 0.0510 0.0569 0.1711 -0.0731 0.3970 1.6918 4.2340 0.0046 -0.0030 35.4643 -1.5461 2.1431 35.5626 0.0604 -0.0435 0.0891 -0.1187 0.6031 0.0000 35.4643
0.1300 0.0497 0.0603 0.1879 -0.0608 0.3248 1.6338 4.5898 0.0061 -0.0034 35.5069 -1.6132 2.1478 35.6084 0.0604 -0.0453 0.0788 -0.1233 0.6031 0.0000 35.5069
0.1400 0.0487 0.0631 0.2040 -0.0480 0.2519 1.5694 4.9461 0.0078 -0.0038 35.5502 -1.6540 2.1560 35.6539 0.0606 -0.0464 0.0701 -0.1267 0.6031 0.0000 35.5502
0.1500 0.0478 0.0651 0.2195 -0.0348 0.1805 1.5003 5.3029 0.0099 -0.0043 35.5942 -1.6689 2.1671 35.6992 0.0608 -0.0468 0.0627 -0.1286 0.6031 0.0000 35.5942
0.1600 0.0472 0.0664 0.2342 -0.0219 0.1121 1.4280 5.6601 0.0123 -0.0048 35.6391 -1.6588 2.1810 35.7443 0.0611 -0.0464 0.0565 -0.1293 0.6031 0.0000 35.6391
0.1700 0.0469 0.0672 0.2481 -0.0095 0.0484 1.3537 6.0177 0.0150 -0.0054 35.6847 -1.6253 2.1969 35.7892 0.0615 -0.0454 0.0514 -0.1294 0.6031 0.0000 35.6847
0.1800 0.0468 0.0674 0.2613 0.0023 -0.0097 1.2784 6.3758 0.0181 -0.0059 35.7310 -1.5704 2.2146 35.8340 0.0619 -0.0438 0.0472 -0.1292 0.6031 0.0000 35.7310
0.1900 0.0469 0.0670 0.2737 0.0135 -0.0611 1.2030 6.7344 0.0215 -0.0066 35.7777 -1.4965 2.2335 35.8785 0.0623 -0.0417 0.0438 -0.1288 0.6031 0.0000 35.7777
0.2000 0.0474 0.0663 0.2853 0.0241 -0.1052 1.1283 7.0934 0.0252 -0.0072 35.8246 -1.4062 2.2534 35.9230 0.0628 -0.0392 0.0412 -0.1282 0.6031 0.0000 35.8246
0.2100 0.0480 0.0652 0.2961 0.0342 -0.1417 1.0549 7.4528 0.0294 -0.0079 35.8716 -1.3023 2.2741 35.9672 0.0633 -0.0362 0.0393 -0.1275 0.6031 0.0000 35.8716
0.2200 0.0488 0.0638 0.3063 0.0437 -0.1704 0.9835 7.8127 0.0339 -0.0087 35.9185 -1.1875 2.2954 36.0113 0.0638 -0.0330 0.0379 -0.1265 0.6031 0.0000 35.9185
0.2300 0.0498 0.0622 0.3157 0.0528 -0.1912 0.9146 8.1730 0.0388 -0.0095 35.9650 -1.0649 2.3172 36.0553 0.0643 -0.0295 0.0369 -0.1254 0.6031 0.0000 35.9650
0.2400 0.0510 0.0605 0.3244 0.0614 -0.2045 0.8487 8.5337 0.0441 -0.0102 36.0109 -0.9372 2.3396 36.0990 0.0649 -0.0260 0.0363 -0.1242 0.6031 0.0000 36.0109
0.2500 0.0523 0.0587 0.3325 0.0695 -0.2105 0.7860 8.8949 0.0498 -0.0111 36.0563 -0.8072 2.3626 36.1426 0.0654 -0.0223 0.0361 -0.1230 0.6031 0.0000 36.0563
0.2600 0.0537 0.0570 0.3399 0.0772 -0.2097 0.7270 9.2565 0.0559 -0.0119 36.1009 -0.6772 2.3862 36.1860 0.0660 -0.0187 0.0360 -0.1219 0.6031 0.0000 36.1009
0.2700 0.0551 0.0553 0.3468 0.0844 -0.2028 0.6718 9.6185 0.0624 -0.0127 36.1448 -0.5498 2.4103 36.2293 0.0666 -0.0152 0.0360 -0.1209 0.6031 0.0000 36.1448
0.2800 0.0566 0.0538 0.3532 0.0913 -0.1904 0.6205 9.9809 0.0692 -0.0136 36.1880 -0.4269 2.4352 36.2723 0.0672 -0.0118 0.0362 -0.1201 0.6031 0.0000 36.1880
0.2900 0.0582 0.0524 0.3591 0.0978 -0.1733 0.5733 10.3438 0.0765 -0.0144 36.2304 -0.3104 2.4607 36.3152 0.0678 -0.0085 0.0364 -0.1194 0.6031 0.0000 36.2304
0.3000 0.0597 0.0512 0.3645 0.1041 -0.1522 0.5302 10.7071 0.0842 -0.0153 36.2721 -0.2018 2.4871 36.3578 0.0685 -0.0055 0.0365 -0.1189 0.6031 0.0000 36.2721
0.3100 0.0612 0.0503 0.3696 0.1101 -0.1280 0.4910 11.0708 0.0922 -0.0161 36.3131 -0.1022 2.5142 36.4002 0.0691 -0.0028 0.0366 -0.1187 0.6031 0.0000 36.3131
0.3200 0.0627 0.0496 0.3743 0.1160 -0.1014 0.4558 11.4349 0.1007 -0.0169 36.3536 -0.0127 2.5422 36.4424 0.0698 -0.0003 0.0365 -0.1186 0.6031 0.0000 36.3536
0.3300 0.0641 0.0492 0.3786 0.1218 -0.0733 0.4243 11.7994 0.1096 -0.0177 36.3936 0.0662 2.5711 36.4843 0.0705 0.0018 0.0363 -0.1186 0.6031 0.0000 36.3936
0.3400 0.0655 0.0492 0.3827 0.1276 -0.0443 0.3964 12.1643 0.1189 -0.0185 36.4331 0.1340 2.6011 36.5261 0.0713 0.0037 0.0360 -0.1189 0.6031 0.0000 36.4331
0.3500 0.0668 0.0494 0.3866 0.1332 -0.0152 0.3717 12.5297 0.1285 -0.0192 36.4722 0.1908 2.6320 36.5676 0.0720 0.0052 0.0355 -0.1192 0.6031 0.0000 36.4722
0.3600 0.0681 0.0499 0.3902 0.1389 0.0134 0.3501 12.8954 0.1386 -0.0199 36.5110 0.2366 2.6640 36.6088 0.0728 0.0065 0.0349 -0.1197 0.6031 0.0000 36.5110
0.3700 0.0693 0.0507 0.3937 0.1446 0.0409 0.3312 13.2616 0.1492 -0.0205 36.5494 0.2719 2.6970 36.6498 0.0737 0.0074 0.0340 -0.1202 0.6031 0.0000 36.5494
0.3800 0.0704 0.0517 0.3970 0.1503 0.0669 0.3148 13.6281 0.1601 -0.0210 36.5876 0.2971 2.7312 36.6906 0.0745 0.0081 0.0330 -0.1208 0.6031 0.0000 36.5876
0.3900 0.0715 0.0531 0.4002 0.1560 0.0909 0.3006 13.9950 0.1715 -0.0215 36.6255 0.3131 2.7666 36.7311 0.0754 0.0085 0.0319 -0.1214 0.6031 0.0000 36.6255
0.4000 0.0726 0.0546 0.4032 0.1617 0.1126 0.2882 14.3623 0.1833 -0.0220 36.6630 0.3206 2.8031 36.7714 0.0763 0.0087 0.0306 -0.1221 0.6031 0.0000 36.6630
0.4100 0.0736 0.0564 0.4062 0.1674 0.1318 0.2773 14.7301 0.1956 -0.0223 36.7002 0.3205 2.8407 36.8114 0.0773 0.0087 0.0292 -0.1227 0.6031 0.0000 36.7002
0.4200 0.0746 0.0584 0.4090 0.1731 0.1482 0.2678 15.0982 0.2083 -0.0226 36.7372 0.3140 2.8796 36.8512 0.0782 0.0085 0.0276 -0.1234 0.6031 0.0000 36.7372
0.4300 0.0756 0.0605 0.4118 0.1787 0.1619 0.2592 15.4666 0.2215 -0.0227 36.7738 0.3020 2.9195 36.8907 0.0792 0.0082 0.0260 -0.1240 0.6031 0.0000 36.7738
0.4400 0.0766 0.0628 0.4146 0.1843 0.1728 0.2514 15.8355 0.2351 -0.0228 36.8100 0.2856 2.9606 36.9300 0.0803 0.0077 0.0244 -0.1246 0.6031 0.0000 36.8100
0.4500 0.0776 0.0652 0.4172 0.1898 0.1810 0.2441 16.2047 0.2492 -0.0227 36.8458 0.2659 3.0028 36.9689 0.0813 0.0072 0.0227 -0.1252 0.6031 0.0000 36.8458
0.4600 0.0786 0.0676 0.4198 0.1952 0.1865 0.2371 16.5743 0.2638 -0.0225 36.8813 0.2438 3.0460 37.0077 0.0824 0.0066 0.0210 -0.1258 0.6031 0.0000 36.8813
0.4700 0.0796 0.0702 0.4223 0.2005 0.1895 0.2304 16.9443 0.2789 -0.0222 36.9164 0.2203 3.0903 37.0461 0.0835 0.0059 0.0193 -0.1263 0.6031 0.0000 36.9164
0.4800 0.0807 0.0727 0.4248 0.2056 0.1902 0.2236 17.3146 0.2944 -0.0218 36.9510 0.1963 3.1354 37.0843 0.0846 0.0053 0.0177 -0.1269 0.6031 0.0000 36.9510
0.4900 0.0818 0.0753 0.4272 0.2106 0.1888 0.2168 17.6853 0.3105 -0.0212 36.9853 0.1726 3.1814 37.1222 0.0858 0.0046 0.0161 -0.1274 0.6031 0.0000 36.9853
0.5000 0.0830 0.0779 0.4296 0.2153 0.1857 0.2098 18.0563 0.3271 -0.0204 37.0191 0.1499 3.2281 37.1599 0.0870 0.0040 0.0145 -0.1279 0.6031 0.0000 37.0191
0.5100 0.0842 0.0805 0.4319 0.2199 0.1810 0.2025 18.4277 0.3443 -0.0195 37.0525 0.1287 3.2756 37.1972 0.0882 0.0035 0.0130 -0.1283 0.6031 0.0000 37.0525
0.5200 0.0855 0.0831 0.4341 0.2242 0.1750 0.1950 18.7994 0.3619 -0.0185 37.0855 0.1096 3.3236 37.2343 0.0894 0.0029 0.0117 -0.1288 0.6031 0.0000 37.0855
0.5300 0.0868 0.0856 0.4362 0.2283 0.1681 0.1871 19.1715 0.3802 -0.0172 37.1181 0.0930 3.3721 37.2711 0.0906 0.0025 0.0104 -0.1292 0.6031 0.0000 37.1181
0.5400 0.0882 0.0881 0.4382 0.2322 0.1604 0.1790 19.5439 0.3989 -0.0158 37.1503 0.0792 3.4211 37.3076 0.0918 0.0021 0.0092 -0.1297 0.6031 0.0000 37.1503
0.5500 0.0896 0.0905 0.4402 0.2358 0.1523 0.1706 19.9167 0.4183 -0.0142 37.1822 0.0682 3.4703 37.3438 0.0931 0.0018 0.0082 -0.1301 0.6031 0.0000 37.1822
0.5600 0.0912 0.0928 0.4421 0.2392 0.1440 0.1619 20.2898 0.4381 -0.0123 37.2136 0.0603 3.5197 37.3798 0.0943 0.0016 0.0072 -0.1306 0.6031 0.0000 37.2136
0.5700 0.0927 0.0952 0.4438 0.2423 0.1357 0.1530 20.6632 0.4586 -0.0103 37.2447 0.0553 3.5692 37.4154 0.0955 0.0015 0.0064 -0.1310 0.6031 0.0000 37.2447
0.5800 0.0944 0.0974 0.4455 0.2452 0.1277 0.1440 21.0369 0.4797 -0.0080 37.2755 0.0533 3.6188 37.4507 0.0968 0.0014 0.0056 -0.1315 0.6031 0.0000 37.2755
0.5900 0.0961 0.0996 0.4471 0.2479 0.1200 0.1349 21.4110 0.5013 -0.0055 37.3058 0.0541 3.6682 37.4858 0.0980 0.0014 0.0050 -0.1319 0.6031 0.0000 37.3058
0.6000 0.0978 0.1017 0.4487 0.2504 0.1129 0.1258 21.7853 0.5235 -0.0028 37.3359 0.0574 3.7175 37.5205 0.0992 0.0015 0.0044 -0.1324 0.6031 0.0000 37.3359
0.6100 0.0996 0.1038 0.4501 0.2526 0.1065 0.1168 22.1600 0.5464 0.0002 37.3656 0.0630 3.7666 37.5550 0.1005 0.0017 0.0040 -0.1329 0.6031 0.0000 37.3656
0.6200 0.1014 0.1059 0.4514 0.2547 0.1008 0.1078 22.5350 0.5698 0.0035 37.3949 0.0707 3.8153 37.5891 0.1017 0.0019 0.0036 -0.1334 0.6031 0.0000 37.3949
0.6300 0.1033 0.1079 0.4526 0.2565 0.0959 0.0990 22.9102 0.5939 0.0070 37.4240 0.0801 3.8637 37.6230 0.1029 0.0021 0.0033 -0.1340 0.6031 0.0000 37.4240
0.6400 0.1052 0.1099 0.4538 0.2582 0.0919 0.0905 23.2858 0.6186 0.0108 37.4527 0.0909 3.9117 37.6566 0.1041 0.0024 0.0031 -0.1345 0.6031 0.0000 37.4527
0.6500 0.1071 0.1118 0.4549 0.2597 0.0887 0.0822 23.6617 0.6440 0.0150 37.4811 0.1028 3.9592 37.6898 0.1052 0.0027 0.0029 -0.1351 0.6031 0.0000 37.4811
0.6600 0.1091 0.1138 0.4559 0.2611 0.0863 0.0742 24.0378 0.6699 0.0194 37.5092 0.1154 4.0061 37.7227 0.1064 0.0031 0.0027 -0.1357 0.6031 0.0000 37.5092
0.6700 0.1111 0.1157 0.4568 0.2624 0.0848 0.0667 24.4142 0.6965 0.0241 37.5371 0.1285 4.0525 37.7554 0.1075 0.0034 0.0026 -0.1363 0.6031 0.0000 37.5371
0.6800 0.1130 0.1176 0.4576 0.2635 0.0841 0.0595 24.7909 0.7238 0.0292 37.5646 0.1417 4.0983 37.7877 0.1087 0.0037 0.0025 -0.1369 0.6031 0.0000 37.5646
0.6900 0.1150 0.1196 0.4584 0.2645 0.0840 0.0528 25.1679 0.7517 0.0345 37.5918 0.1547 4.1435 37.8198 0.1098 0.0041 0.0025 -0.1376 0.6031 0.0000 37.5918
0.7000 0.1170 0.1215 0.4591 0.2655 0.0846 0.0465 25.5451 0.7802 0.0403 37.6187 0.1674 4.1880 37.8515 0.1109 0.0044 0.0024 -0.1382 0.6031 0.0000 37.6187
0.7100 0.1190 0.1235 0.4598 0.2663 0.0857 0.0406 25.9226 0.8095 0.0464 37.6454 0.1795 4.2319 37.8829 0.1119 0.0047 0.0024 -0.1389 0.6031 0.0000 37.6454
0.7200 0.1211 0.1254 0.4604 0.2671 0.0873 0.0352 26.3004 0.8393 0.0528 37.6718 0.1908 4.2750 37.9141 0.1130 0.0050 0.0023 -0.1395 0.6031 0.0000 37.6718
0.7300 0.1231 0.1274 0.4610 0.2679 0.0892 0.0303 26.6784 0.8699 0.0596 37.6979 0.2012 4.3175 37.9449 0.1140 0.0053 0.0023 -0.1402 0.6031 0.0000 37.6979
0.7400 0.1251 0.1294 0.4615 0.2685 0.0914 0.0258 27.0566 0.9011 0.0668 37.7238 0.2105 4.3593 37.9754 0.1150 0.0055 0.0022 -0.1409 0.6031 0.0000 37.7238
0.7500 0.1271 0.1315 0.4620 0.2692 0.0938 0.0216 27.4351 0.9330 0.0744 37.7494 0.2188 4.4004 38.0056 0.1160 0.0058 0.0021 -0.1415 0.6031 0.0000 37.7494
0.7600 0.1290 0.1335 0.4625 0.2698 0.0964 0.0179 27.8138 0.9657 0.0824 37.7747 0.2260 4.4408 38.0355 0.1170 0.0059 0.0020 -0.1422 0.6031 0.0000 37.7747
0.7700 0.1310 0.1356 0.4629 0.2703 0.0989 0.0145 28.1928 0.9989 0.0908 37.7998 0.2320 4.4805 38.0651 0.1180 0.0061 0.0019 -0.1428 0.6031 0.0000 37.7998
0.7800 0.1330 0.1378 0.4633 0.2709 0.1015 0.0115 28.5720 1.0329 0.0996 37.8246 0.2368 4.5195 38.0944 0.1189 0.0062 0.0018 -0.1435 0.6031 0.0000 37.8246
0.7900 0.1350 0.1399 0.4637 0.2714 0.1039 0.0087 28.9513 1.0676 0.1089 37.8492 0.2406 4.5577 38.1234 0.1198 0.0063 0.0016 -0.1441 0.6031 0.0000 37.8492
0.8000 0.1369 0.1421 0.4641 0.2718 0.1062 0.0062 29.3310 1.1030 0.1186 37.8736 0.2434 4.5953 38.1521 0.1207 0.0064 0.0015 -0.1447 0.6031 0.0000 37.8736
0.8100 0.1389 0.1443 0.4644 0.2723 0.1082 0.0039 29.7108 1.1391 0.1287 37.8976 0.2452 4.6322 38.1805 0.1216 0.0064 0.0013 -0.1453 0.6031 0.0000 37.8976
0.8200 0.1408 0.1465 0.4647 0.2727 0.1101 0.0019 30.0908 1.1759 0.1393 37.9215 0.2461 4.6685 38.2086 0.1225 0.0064 0.0011 -0.1459 0.6031 0.0000 37.9215
0.8300 0.1428 0.1487 0.4651 0.2731 0.1117 -0.0000 30.4710 1.2134 0.1503 37.9451 0.2463 4.7040 38.2364 0.1233 0.0064 0.0009 -0.1465 0.6031 0.0000 37.9451
0.8400 0.1447 0.1510 0.4654 0.2734 0.1130 -0.0018 30.8514 1.2517 0.1619 37.9685 0.2459 4.7388 38.2638 0.1242 0.0064 0.0007 -0.1470 0.6031 0.0000 37.9685
0.8500 0.1466 0.1533 0.4657 0.2737 0.1140 -0.0035 31.2320 1.2907 0.1738 37.9916 0.2449 4.7730 38.2910 0.1250 0.0064 0.0005 -0.1476 0.6031 0.0000 37.9916
0.8600 0.1486 0.1555 0.4660 0.2740 0.1148 -0.0050 31.6128 1.3304 0.1863 38.0145 0.2435 4.8065 38.3179 0.1258 0.0064 0.0002 -0.1481 0.6031 0.0000 38.0145
0.8700 0.1505 0.1578 0.4663 0.2742 0.1153 -0.0065 31.9937 1.3708 0.1993 38.0371 0.2417 4.8393 38.3445 0.1265 0.0063 0.0000 -0.1486 0.6031 0.0000 38.0371
0.8800 0.1524 0.1601 0.4665 0.2744 0.1155 -0.0080 32.3749 1.4120 0.2128 38.0595 0.2398 4.8714 38.3708 0.1273 0.0062 -0.0002 -0.1490 0.6031 0.0000 38.0595
0.8900 0.1544 0.1624 0.4668 0.2746 0.1155 -0.0094 32.7562 1.4539 0.2267 38.0817 0.2377 4.9028 38.3967 0.1280 0.0062 -0.0004 -0.1495 0.6031 0.0000 38.0817
0.9000 0.1563 0.1647 0.4670 0.2747 0.1152 -0.0109 33.1376 1.4965 0.2412 38.1036 0.2356 4.9336 38.4224 0.1288 0.0061 -0.0006 -0.1499 0.6031 0.0000 38.1036
0.9100 0.1582 0.1670 0.4673 0.2748 0.1148 -0.0123 33.5192 1.5399 0.2562 38.1253 0.2335 4.9636 38.4478 0.1295 0.0061 -0.0008 -0.1504 0.6031 0.0000 38.1253
0.9200 0.1602 0.1693 0.4675 0.2748 0.1142 -0.0137 33.9009 1.5841 0.2718 38.1468 0.2316 4.9930 38.4729 0.1301 0.0060 -0.0010 -0.1508 0.6031 0.0000 38.1468
0.9300 0.1621 0.1716 0.4677 0.2748 0.1135 -0.0151 34.2828 1.6290 0.2879 38.1681 0.2298 5.0217 38.4977 0.1308 0.0060 -0.0012 -0.1511 0.6031 0.0000 38.1681
0.9400 0.1641 0.1739 0.4680 0.2747 0.1126 -0.0166 34.6648 1.6747 0.3045 38.1891 0.2283 5.0496 38.5222 0.1315 0.0059 -0.0014 -0.1515 0.6031 0.0000 38.1891
0.9500 0.1660 0.1761 0.4682 0.2746 0.1117 -0.0180 35.0470 1.7211 0.3216 38.2099 0.2270 5.0769 38.5464 0.1321 0.0059 -0.0015 -0.1519 0.6031 0.0000 38.2099
0.9600 0.1679 0.1784 0.4683 0.2744 0.1107 -0.0195 35.4293 1.7683 0.3394 38.2305 0.2259 5.1035 38.5703 0.1327 0.0059 -0.0017 -0.1522 0.6031 0.0000 38.2305
0.9700 0.1699 0.1806 0.4685 0.2742 0.1097 -0.0210 35.8117 1.8162 0.3576 38.2509 0.2252 5.1294 38.5939 0.1333 0.0058 -0.0018 -0.1526 0.6031 0.0000 38.2509
0.9800 0.1718 0.1829 0.4687 0.2739 0.1087 -0.0225 36.1942 1.8650 0.3765 38.2711 0.2247 5.1545 38.6173 0.1339 0.0058 -0.0020 -0.1529 0.6031 0.0000 38.2711
0.9900 0.1738 0.1851 0.4688 0.2736 0.1077 -0.0239 36.5768 1.9145 0.3959 38.2910 0.2245 5.1790 38.6403 0.1344 0.0058 -0.0021 -0.1532 0.6031 0.0000 38.2910
1.0000 0.1758 0.1873 0.4690 0.2733 0.1068 -0.0254 36.9595 1.9647 0.4159 38.3108 0.2246 5.2027 38.6631 0.1350 0.0058 -0.0022 -0.1535 0.6031 0.0000 38.3108
1.0100 0.1777 0.1896 0.4691 0.2729 0.1059 -0.0268 37.3423 2.0158 0.4365 38.3303 0.2249 5.2257 38.6855 0.1355 0.0058 -0.0023 -0.1538 0.6031 0.0000 38.3303
1.0200 0.1797 0.1918 0.4692 0.2725 0.1050 -0.0283 37.7252 2.0676 0.4577 38.3496 0.2254 5.2480 38.7077 0.1360 0.0058 -0.0023 -0.1541 0.6031 0.0000 38.3496
1.0300 0.1816 0.1940 0.4693 0.2720 0.1043 -0.0297 38.1082 2.1202 0.4795 38.3688 0.2262 5.2695 38.7296 0.1365 0.0058 -0.0024 -0.1543 0.6031 0.0000 38.3688
1.0400 0.1836 0.1962 0.4694 0.2715 0.1036 -0.0310 38.4912 2.1736 0.5018 38.3877 0.2271 5.2904 38.7512 0.1370 0.0059 -0.0025 -0.1546 0.6031 0.0000 38.3877
1.0500 0.1855 0.1984 0.4695 0.2709 0.1030 -0.0324 38.8743 2.2278 0.5248 38.4064 0.2281 5.3105 38.7725 0.1374 0.0059 -0.0026 -0.1549 0.6031 0.0000 38.4064
1.0600 0.1875 0.2005 0.4696 0.2704 0.1025 -0.0337 39.2575 2.2828 0.5484 38.4250 0.2292 5.3299 38.7936 0.1378 0.0059 -0.0026 -0.1551 0.6031 0.0000 38.4250
1.0700 0.1894 0.2027 0.4696 0.2698 0.1021 -0.0349 39.6408 2.3386 0.5726 38.4433 0.2304 5.3486 38.8143 0.1382 0.0059 -0.0027 -0.1553 0.6031 0.0000 38.4433
1.0800 0.1914 0.2049 0.4697 0.2691 0.1017 -0.0361 40.0241 2.3951 0.5975 38.4615 0.2317 5.3666 38.8348 0.1386 0.0060 -0.0027 -0.1556 0.6031 0.0000 38.4615
1.0900 0.1933 0.2070 0.4697 0.2685 0.1014 -0.0373 40.4074 2.4525 0.6229 38.4795 0.2329 5.3839 38.8550 0.1390 0.0060 -0.0027 -0.1558 0.6031 0.0000 38.4795
1.1000 0.1952 0.2092 0.4698 0.2678 0.1012 -0.0384 40.7908 2.5106 0.6490 38.4973 0.2342 5.4005 38.8749 0.1394 0.0060 -0.0028 -0.1560 0.6031 0.0000 38.4973
1.1100 0.1972 0.2113 0.4698 0.2671 0.1011 -0.0394 41.1742 2.5695 0.6757 38.5149 0.2354 5.4164 38.8946 0.1397 0.0061 -0.0028 -0.1562 0.6031 0.0000 38.5149
1.1200 0.1991 0.2135 0.4698 0.2664 0.1010 -0.0404 41.5577 2.6293 0.7031 38.5323 0.2365 5.4317 38.9140 0.1400 0.0061 -0.0029 -0.1564 0.6031 0.0000 38.5323
1.1300 0.2010 0.2156 0.4699 0.2656 0.1010 -0.0414 41.9412 2.6898 0.7311 38.5496 0.2376 5.4462 38.9331 0.1403 0.0061 -0.0029 -0.1565 0.6031 0.0000 38.5496
1.1400 0.2029 0.2178 0.4699 0.2649 0.1010 -0.0423 42.3247 2.7511 0.7597 38.5666 0.2386 5.4600 38.9519 0.1406 0.0061 -0.0029 -0.1567 0.6031 0.0000 38.5666
1.1500 0.2048 0.2199 0.4699 0.2641 0.1010 -0.0431 42.7082 2.8133 0.7890 38.5835 0.2395 5.4732 38.9705 0.1409 0.0061 -0.0030 -0.1569 0.6031 0.0000 38.5835
1.1600 0.2067 0.2221 0.4699 0.2633 0.1010 -0.0439 43.0917 2.8762 0.8190 38.6002 0.2403 5.4858 38.9888 0.1412 0.0062 -0.0030 -0.1570 0.6031 0.0000 38.6002
1.1700 0.2086 0.2242 0.4699 0.2625 0.1011 -0.0446 43.4752 2.9399 0.8496 38.6167 0.2410 5.4976 39.0069 0.1414 0.0062 -0.0031 -0.1571 0.6031 0.0000 38.6167
1.1800 0.2105 0.2263 0.4699 0.2617 0.1012 -0.0454 43.8587 3.0045 0.8809 38.6331 0.2416 5.5089 39.0246 0.1416 0.0062 -0.0031 -0.1573 0.6031 0.0000 38.6331
1.1900 0.2123 0.2285 0.4699 0.2609 0.1012 -0.0460 44.2422 3.0698 0.9128 38.6493 0.2420 5.5195 39.0421 0.1419 0.0062 -0.0031 -0.1574 0.6031 0.0000 38.6493
1.2000 0.2142 0.2306 0.4698 0.2600 0.1013 -0.0467 44.6257 3.1359 0.9454 38.6653 0.2424 5.5295 39.0594 0.1420 0.0062 -0.0032 -0.1575 0.6031 0.0000 38.6653
1.2100 0.2161 0.2327 0.4698 0.2592 0.1013 -0.0473 45.0092 3.2029 0.9787 38.6811 0.2427 5.5388 39.0764 0.1422 0.0062 -0.0032 -0.1576 0.6031 0.0000 38.6811
1.2200 0.2179 0.2349 0.4698 0.2583 0.1013 -0.0479 45.3926 3.2706 1.0127 38.6967 0.2429 5.5476 39.0931 0.1424 0.0062 -0.0033 -0.1577 0.6031 0.0000 38.6967
1.2300 0.2197 0.2370 0.4698 0.2574 0.1013 -0.0484 45.7760 3.3391 1.0473 38.7122 0.2430 5.5557 39.1096 0.1425 0.0062 -0.0033 -0.1577 0.6031 0.0000 38.7122
1.2400 0.2216 0.2391 0.4698 0.2566 0.1013 -0.0490 46.1594 3.4085 1.0826 38.7275 0.2430 5.5633 39.1258 0.1427 0.0062 -0.0034 -0.1578 0.6031 0.0000 38.7275
1.2500 0.2234 0.2412 0.4697 0.2557 0.1013 -0.0495 46.5427 3.4786 1.1186 38.7426 0.2430 5.5703 39.1418 0.1428 0.0062 -0.0034 -0.1578 0.6031 0.0000 38.7426
1.2600 0.2252 0.2433 0.4697 0.2548 0.1012 -0.0500 46.9259 3.5496 1.1552 38.7576 0.2429 5.5767 39.1575 0.1429 0.0062 -0.0035 -0.1579 0.6031 0.0000 38.7576
1.2700 0.2270 0.2454 0.4697 0.2538 0.1011 -0.0505 47.3091 3.6214 1.1926 38.7724 0.2428 5.5825 39.1730 0.1430 0.0062 -0.0035 -0.1579 0.6031 0.0000 38.7724
