     time [s]   theta [rad]     psi [rad]     phi [rad]     q [rad/s]     r [rad/s]     p [rad/s]        pn [m]        pe [m]         h [m]       u [m/s]       v [m/s]       w [m/s]      Va [m/s]   alpha [rad]    beta [rad] delta_a [rad] delta_e [rad]       delta_t delta_r [rad]
0.0000 0.0733 0.0000 0.0000 0.0000 0.0000 0.0000 0.0000 0.0000 -0.0000 34.9061 -0.0000 2.5621 34.0588 0.0145 0.0000 0.3491 0.0000 0.6031 0.0000
0.0100 0.0732 0.0008 0.0021 -0.0195 0.1596 0.3962 0.3503 0.0019 -0.0002 34.9544 -0.0230 2.6025 34.1075 0.0157 -0.0008 0.3491 0.2042 0.6031 0.0000
0.0200 0.0725 0.0031 0.0080 -0.1078 0.3014 0.7476 0.7010 0.0038 -0.0009 35.0036 -0.0883 2.6355 34.1560 0.0166 -0.0030 0.3491 0.1657 0.6031 0.0000
0.0300 0.0710 0.0068 0.0173 -0.1816 0.4253 1.0614 1.0523 0.0057 -0.0020 35.0546 -0.1903 2.6384 34.2045 0.0167 -0.0064 0.3419 0.0459 0.6031 0.0000
0.0400 0.0689 0.0115 0.0297 -0.2127 0.5280 1.3352 1.4041 0.0076 -0.0036 35.1063 -0.3228 2.6175 34.2530 0.0162 -0.0109 0.2963 -0.0595 0.6031 0.0000
0.0500 0.0666 0.0171 0.0444 -0.2062 0.5923 1.5305 1.7564 0.0094 -0.0056 35.1574 -0.4769 2.5890 34.3014 0.0154 -0.0161 0.2525 -0.1170 0.6031 0.0000
0.0600 0.0644 0.0230 0.0607 -0.1790 0.6216 1.6587 2.1092 0.0112 -0.0080 35.2069 -0.6415 2.5662 34.3498 0.0148 -0.0216 0.2158 -0.1312 0.6031 0.0000
0.0700 0.0623 0.0292 0.0781 -0.1466 0.6222 1.7357 2.4625 0.0130 -0.0107 35.2546 -0.8067 2.5564 34.3980 0.0146 -0.0273 0.1855 -0.1211 0.6031 0.0000
0.0800 0.0605 0.0351 0.0960 -0.1179 0.5997 1.7741 2.8163 0.0148 -0.0137 35.3005 -0.9642 2.5608 34.4461 0.0148 -0.0327 0.1603 -0.1041 0.6031 0.0000
0.0900 0.0588 0.0408 0.1141 -0.0957 0.5593 1.7836 3.1706 0.0167 -0.0170 35.3452 -1.1073 2.5775 34.4940 0.0154 -0.0377 0.1392 -0.0907 0.6031 0.0000
0.1000 0.0573 0.0460 0.1322 -0.0793 0.5052 1.7712 3.5254 0.0187 -0.0207 35.3892 -1.2311 2.6034 34.5417 0.0163 -0.0422 0.1212 -0.0843 0.6031 0.0000
0.1100 0.0559 0.0506 0.1500 -0.0663 0.4412 1.7420 3.8807 0.0209 -0.0248 35.4330 -1.3317 2.6356 34.5893 0.0173 -0.0459 0.1059 -0.0839 0.6031 0.0000
0.1200 0.0547 0.0545 0.1675 -0.0549 0.3706 1.7000 4.2365 0.0233 -0.0292 35.4769 -1.4066 2.6721 34.6366 0.0185 -0.0490 0.0928 -0.0870 0.6031 0.0000
0.1300 0.0536 0.0577 0.1844 -0.0438 0.2962 1.6481 4.5927 0.0258 -0.0339 35.5213 -1.4545 2.7116 34.6838 0.0198 -0.0512 0.0815 -0.0913 0.6031 0.0000
0.1400 0.0527 0.0602 0.2007 -0.0327 0.2205 1.5886 4.9495 0.0285 -0.0390 35.5664 -1.4747 2.7533 34.7307 0.0211 -0.0526 0.0720 -0.0953 0.6031 0.0000
0.1500 0.0521 0.0619 0.2163 -0.0214 0.1458 1.5232 5.3067 0.0315 -0.0444 35.6122 -1.4675 2.7966 34.7775 0.0225 -0.0531 0.0638 -0.0985 0.6031 0.0000
0.1600 0.0517 0.0629 0.2313 -0.0102 0.0738 1.4536 5.6644 0.0348 -0.0502 35.6587 -1.4339 2.8411 34.8241 0.0239 -0.0529 0.0570 -0.1008 0.6031 0.0000
0.1700 0.0516 0.0633 0.2454 0.0007 0.0062 1.3810 6.0226 0.0383 -0.0563 35.7058 -1.3756 2.8863 34.8706 0.0254 -0.0520 0.0513 -0.1023 0.6031 0.0000
0.1800 0.0517 0.0631 0.2589 0.0111 -0.0558 1.3065 6.3813 0.0421 -0.0626 35.7534 -1.2944 2.9319 34.9169 0.0268 -0.0504 0.0467 -0.1033 0.6031 0.0000
0.1900 0.0521 0.0623 0.2715 0.0211 -0.1111 1.2312 6.7404 0.0463 -0.0693 35.8013 -1.1929 2.9776 34.9631 0.0283 -0.0481 0.0430 -0.1038 0.6031 0.0000
0.2000 0.0527 0.0611 0.2834 0.0306 -0.1589 1.1558 7.1000 0.0507 -0.0763 35.8491 -1.0738 3.0231 35.0092 0.0297 -0.0454 0.0402 -0.1040 0.6031 0.0000
0.2100 0.0535 0.0594 0.2945 0.0396 -0.1988 1.0812 7.4601 0.0555 -0.0835 35.8968 -0.9401 3.0683 35.0551 0.0311 -0.0422 0.0380 -0.1039 0.6031 0.0000
0.2200 0.0546 0.0575 0.3048 0.0482 -0.2305 1.0080 7.8206 0.0607 -0.0910 35.9440 -0.7947 3.1132 35.1010 0.0325 -0.0386 0.0365 -0.1035 0.6031 0.0000
0.2300 0.0558 0.0554 0.3144 0.0563 -0.2539 0.9369 8.1816 0.0662 -0.0988 35.9905 -0.6409 3.1577 35.1467 0.0338 -0.0348 0.0356 -0.1029 0.6031 0.0000
0.2400 0.0572 0.0530 0.3233 0.0640 -0.2691 0.8685 8.5431 0.0721 -0.1069 36.0363 -0.4815 3.2019 35.1922 0.0352 -0.0308 0.0351 -0.1022 0.6031 0.0000
0.2500 0.0588 0.0507 0.3315 0.0711 -0.2765 0.8031 8.9050 0.0784 -0.1151 36.0812 -0.3196 3.2459 35.2377 0.0365 -0.0267 0.0349 -0.1014 0.6031 0.0000
0.2600 0.0604 0.0483 0.3391 0.0779 -0.2764 0.7412 9.2674 0.0851 -0.1237 36.1251 -0.1580 3.2897 35.2830 0.0378 -0.0226 0.0351 -0.1007 0.6031 0.0000
0.2700 0.0620 0.0460 0.3461 0.0842 -0.2695 0.6831 9.6302 0.0921 -0.1324 36.1680 0.0008 3.3334 35.3281 0.0391 -0.0185 0.0354 -0.1001 0.6031 0.0000
0.2800 0.0638 0.0438 0.3525 0.0902 -0.2564 0.6289 9.9935 0.0996 -0.1414 36.2100 0.1544 3.3771 35.3731 0.0404 -0.0146 0.0358 -0.0996 0.6031 0.0000
0.2900 0.0655 0.0418 0.3584 0.0959 -0.2378 0.5789 10.3573 0.1074 -0.1506 36.2512 0.3008 3.4209 35.4179 0.0417 -0.0108 0.0363 -0.0992 0.6031 0.0000
0.3000 0.0672 0.0400 0.3638 0.1014 -0.2147 0.5331 10.7215 0.1157 -0.1600 36.2915 0.4382 3.4650 35.4626 0.0430 -0.0073 0.0367 -0.0991 0.6031 0.0000
0.3100 0.0689 0.0385 0.3689 0.1066 -0.1877 0.4915 11.0861 0.1243 -0.1696 36.3312 0.5652 3.5093 35.5070 0.0442 -0.0040 0.0371 -0.0992 0.6031 0.0000
0.3200 0.0706 0.0373 0.3735 0.1117 -0.1579 0.4540 11.4512 0.1333 -0.1793 36.3703 0.6807 3.5541 35.5513 0.0455 -0.0011 0.0374 -0.0995 0.6031 0.0000
0.3300 0.0721 0.0364 0.3778 0.1167 -0.1259 0.4206 11.8167 0.1428 -0.1893 36.4089 0.7838 3.5992 35.5954 0.0468 0.0016 0.0376 -0.1000 0.6031 0.0000
0.3400 0.0737 0.0358 0.3818 0.1217 -0.0927 0.3909 12.1826 0.1526 -0.1993 36.4473 0.8741 3.6449 35.6392 0.0481 0.0038 0.0375 -0.1006 0.6031 0.0000
0.3500 0.0751 0.0356 0.3856 0.1267 -0.0589 0.3650 12.5490 0.1629 -0.2096 36.4853 0.9513 3.6912 35.6829 0.0494 0.0058 0.0373 -0.1014 0.6031 0.0000
0.3600 0.0765 0.0357 0.3891 0.1317 -0.0254 0.3423 12.9159 0.1735 -0.2199 36.5232 1.0156 3.7381 35.7263 0.0507 0.0074 0.0369 -0.1023 0.6031 0.0000
0.3700 0.0777 0.0361 0.3925 0.1368 0.0073 0.3228 13.2831 0.1846 -0.2304 36.5610 1.0672 3.7858 35.7695 0.0520 0.0086 0.0363 -0.1033 0.6031 0.0000
0.3800 0.0789 0.0369 0.3957 0.1420 0.0385 0.3060 13.6508 0.1961 -0.2410 36.5986 1.1067 3.8341 35.8125 0.0533 0.0095 0.0355 -0.1044 0.6031 0.0000
0.3900 0.0801 0.0379 0.3987 0.1472 0.0677 0.2917 14.0189 0.2080 -0.2518 36.6361 1.1347 3.8833 35.8553 0.0546 0.0102 0.0345 -0.1055 0.6031 0.0000
0.4000 0.0811 0.0393 0.4017 0.1525 0.0946 0.2796 14.3874 0.2203 -0.2626 36.6735 1.1523 3.9332 35.8979 0.0560 0.0105 0.0333 -0.1066 0.6031 0.0000
0.4100 0.0821 0.0409 0.4046 0.1579 0.1189 0.2693 14.7564 0.2330 -0.2735 36.7108 1.1604 3.9840 35.9402 0.0574 0.0106 0.0320 -0.1077 0.6031 0.0000
0.4200 0.0831 0.0427 0.4074 0.1633 0.1402 0.2604 15.1257 0.2462 -0.2844 36.7479 1.1600 4.0357 35.9823 0.0588 0.0105 0.0305 -0.1088 0.6031 0.0000
0.4300 0.0840 0.0447 0.4101 0.1688 0.1584 0.2528 15.4955 0.2598 -0.2955 36.7847 1.1525 4.0883 36.0241 0.0602 0.0101 0.0289 -0.1099 0.6031 0.0000
0.4400 0.0849 0.0469 0.4128 0.1742 0.1735 0.2461 15.8656 0.2738 -0.3066 36.8213 1.1389 4.1417 36.0657 0.0616 0.0097 0.0272 -0.1109 0.6031 0.0000
0.4500 0.0858 0.0493 0.4154 0.1797 0.1854 0.2401 16.2362 0.2883 -0.3177 36.8576 1.1205 4.1960 36.1071 0.0630 0.0091 0.0254 -0.1119 0.6031 0.0000
0.4600 0.0867 0.0518 0.4180 0.1851 0.1943 0.2345 16.6072 0.3033 -0.3289 36.8935 1.0984 4.2512 36.1483 0.0645 0.0083 0.0236 -0.1129 0.6031 0.0000
0.4700 0.0876 0.0544 0.4205 0.1904 0.2001 0.2292 16.9786 0.3187 -0.3401 36.9290 1.0738 4.3072 36.1891 0.0660 0.0076 0.0217 -0.1138 0.6031 0.0000
0.4800 0.0886 0.0570 0.4230 0.1956 0.2032 0.2239 17.3503 0.3346 -0.3513 36.9640 1.0477 4.3640 36.2298 0.0675 0.0068 0.0199 -0.1146 0.6031 0.0000
0.4900 0.0895 0.0597 0.4255 0.2007 0.2038 0.2184 17.7225 0.3511 -0.3625 36.9986 1.0211 4.4215 36.2702 0.0690 0.0060 0.0181 -0.1155 0.6031 0.0000
0.5000 0.0905 0.0624 0.4279 0.2056 0.2020 0.2128 18.0950 0.3680 -0.3738 37.0326 0.9950 4.4796 36.3103 0.0705 0.0052 0.0164 -0.1162 0.6031 0.0000
0.5100 0.0916 0.0651 0.4302 0.2103 0.1983 0.2068 18.4680 0.3854 -0.3850 37.0661 0.9700 4.5384 36.3502 0.0721 0.0044 0.0147 -0.1170 0.6031 0.0000
0.5200 0.0927 0.0678 0.4325 0.2148 0.1928 0.2005 18.8413 0.4034 -0.3961 37.0991 0.9468 4.5977 36.3898 0.0736 0.0037 0.0131 -0.1177 0.6031 0.0000
0.5300 0.0939 0.0704 0.4347 0.2191 0.1859 0.1937 19.2150 0.4219 -0.4073 37.1316 0.9260 4.6574 36.4291 0.0752 0.0031 0.0116 -0.1184 0.6031 0.0000
0.5400 0.0951 0.0730 0.4369 0.2232 0.1779 0.1865 19.5890 0.4410 -0.4184 37.1635 0.9080 4.7174 36.4682 0.0768 0.0025 0.0102 -0.1191 0.6031 0.0000
0.5500 0.0964 0.0755 0.4389 0.2270 0.1691 0.1789 19.9634 0.4606 -0.4294 37.1949 0.8931 4.7777 36.5070 0.0783 0.0020 0.0090 -0.1198 0.6031 0.0000
0.5600 0.0978 0.0780 0.4409 0.2306 0.1598 0.1709 20.3382 0.4809 -0.4404 37.2258 0.8815 4.8382 36.5455 0.0799 0.0017 0.0078 -0.1204 0.6031 0.0000
0.5700 0.0992 0.0804 0.4428 0.2339 0.1503 0.1625 20.7134 0.5017 -0.4513 37.2561 0.8733 4.8987 36.5838 0.0815 0.0014 0.0068 -0.1211 0.6031 0.0000
0.5800 0.1007 0.0828 0.4446 0.2370 0.1408 0.1538 21.0889 0.5231 -0.4621 37.2860 0.8685 4.9592 36.6217 0.0830 0.0012 0.0059 -0.1217 0.6031 0.0000
0.5900 0.1023 0.0850 0.4464 0.2398 0.1315 0.1449 21.4647 0.5452 -0.4728 37.3153 0.8670 5.0196 36.6594 0.0846 0.0011 0.0051 -0.1224 0.6031 0.0000
0.6000 0.1039 0.0872 0.4480 0.2425 0.1227 0.1357 21.8409 0.5679 -0.4834 37.3442 0.8686 5.0798 36.6968 0.0861 0.0011 0.0044 -0.1231 0.6031 0.0000
0.6100 0.1056 0.0894 0.4495 0.2448 0.1144 0.1265 22.2174 0.5912 -0.4939 37.3726 0.8732 5.1397 36.7340 0.0876 0.0012 0.0038 -0.1237 0.6031 0.0000
0.6200 0.1073 0.0914 0.4510 0.2470 0.1070 0.1173 22.5943 0.6152 -0.5042 37.4005 0.8803 5.1992 36.7708 0.0891 0.0013 0.0034 -0.1244 0.6031 0.0000
0.6300 0.1091 0.0935 0.4523 0.2489 0.1003 0.1081 22.9715 0.6398 -0.5144 37.4281 0.8897 5.2583 36.8073 0.0906 0.0016 0.0030 -0.1251 0.6031 0.0000
0.6400 0.1109 0.0954 0.4536 0.2507 0.0946 0.0990 23.3491 0.6651 -0.5245 37.4552 0.9010 5.3169 36.8436 0.0921 0.0018 0.0027 -0.1258 0.6031 0.0000
0.6500 0.1128 0.0974 0.4547 0.2523 0.0898 0.0901 23.7270 0.6911 -0.5343 37.4819 0.9139 5.3749 36.8796 0.0936 0.0021 0.0025 -0.1265 0.6031 0.0000
0.6600 0.1147 0.0993 0.4558 0.2537 0.0860 0.0815 24.1051 0.7178 -0.5440 37.5083 0.9280 5.4323 36.9152 0.0950 0.0025 0.0023 -0.1273 0.6031 0.0000
0.6700 0.1166 0.1012 0.4568 0.2550 0.0832 0.0732 24.4836 0.7452 -0.5535 37.5342 0.9429 5.4891 36.9506 0.0964 0.0029 0.0022 -0.1281 0.6031 0.0000
0.6800 0.1185 0.1031 0.4577 0.2561 0.0813 0.0653 24.8625 0.7733 -0.5628 37.5599 0.9583 5.5452 36.9857 0.0978 0.0033 0.0021 -0.1288 0.6031 0.0000
0.6900 0.1205 0.1049 0.4585 0.2572 0.0803 0.0578 25.2416 0.8021 -0.5719 37.5851 0.9738 5.6005 37.0205 0.0992 0.0037 0.0021 -0.1296 0.6031 0.0000
0.7000 0.1224 0.1068 0.4593 0.2581 0.0801 0.0507 25.6210 0.8316 -0.5807 37.6101 0.9891 5.6551 37.0550 0.1006 0.0041 0.0021 -0.1304 0.6031 0.0000
0.7100 0.1244 0.1087 0.4600 0.2589 0.0806 0.0441 26.0007 0.8619 -0.5893 37.6348 1.0039 5.7090 37.0892 0.1019 0.0045 0.0021 -0.1313 0.6031 0.0000
0.7200 0.1264 0.1106 0.4607 0.2597 0.0819 0.0380 26.3807 0.8929 -0.5977 37.6592 1.0180 5.7620 37.1231 0.1032 0.0048 0.0021 -0.1321 0.6031 0.0000
0.7300 0.1283 0.1125 0.4612 0.2604 0.0836 0.0323 26.7610 0.9246 -0.6058 37.6833 1.0312 5.8142 37.1567 0.1045 0.0052 0.0021 -0.1329 0.6031 0.0000
0.7400 0.1303 0.1144 0.4618 0.2610 0.0858 0.0272 27.1416 0.9571 -0.6136 37.7071 1.0433 5.8656 37.1900 0.1057 0.0055 0.0020 -0.1338 0.6031 0.0000
0.7500 0.1322 0.1164 0.4623 0.2616 0.0884 0.0225 27.5225 0.9903 -0.6212 37.7307 1.0541 5.9161 37.2231 0.1069 0.0058 0.0020 -0.1346 0.6031 0.0000
0.7600 0.1342 0.1184 0.4628 0.2622 0.0913 0.0182 27.9036 1.0243 -0.6284 37.7540 1.0636 5.9659 37.2558 0.1081 0.0060 0.0020 -0.1355 0.6031 0.0000
0.7700 0.1361 0.1204 0.4632 0.2627 0.0943 0.0144 28.2850 1.0591 -0.6354 37.7771 1.0718 6.0148 37.2882 0.1093 0.0063 0.0019 -0.1363 0.6031 0.0000
0.7800 0.1380 0.1225 0.4636 0.2632 0.0973 0.0110 28.6667 1.0946 -0.6420 37.8000 1.0785 6.0629 37.3203 0.1105 0.0065 0.0018 -0.1371 0.6031 0.0000
0.7900 0.1399 0.1245 0.4640 0.2637 0.1004 0.0079 29.0486 1.1308 -0.6483 37.8226 1.0839 6.1101 37.3521 0.1116 0.0066 0.0017 -0.1379 0.6031 0.0000
0.8000 0.1418 0.1267 0.4644 0.2641 0.1033 0.0052 29.4308 1.1679 -0.6543 37.8449 1.0879 6.1566 37.3837 0.1127 0.0067 0.0016 -0.1387 0.6031 0.0000
0.8100 0.1437 0.1288 0.4647 0.2646 0.1062 0.0027 29.8132 1.2057 -0.6600 37.8671 1.0907 6.2022 37.4149 0.1138 0.0068 0.0015 -0.1395 0.6031 0.0000
0.8200 0.1456 0.1310 0.4650 0.2650 0.1088 0.0005 30.1959 1.2443 -0.6653 37.8890 1.0922 6.2471 37.4458 0.1149 0.0069 0.0013 -0.1402 0.6031 0.0000
0.8300 0.1475 0.1332 0.4653 0.2654 0.1111 -0.0014 30.5788 1.2837 -0.6702 37.9106 1.0927 6.2911 37.4765 0.1159 0.0069 0.0011 -0.1410 0.6031 0.0000
0.8400 0.1494 0.1354 0.4656 0.2658 0.1132 -0.0032 30.9620 1.3238 -0.6747 37.9321 1.0922 6.3344 37.5068 0.1169 0.0069 0.0009 -0.1417 0.6031 0.0000
0.8500 0.1512 0.1376 0.4659 0.2662 0.1149 -0.0048 31.3453 1.3648 -0.6789 37.9533 1.0908 6.3769 37.5368 0.1179 0.0069 0.0007 -0.1424 0.6031 0.0000
0.8600 0.1531 0.1399 0.4662 0.2665 0.1164 -0.0063 31.7289 1.4066 -0.6827 37.9742 1.0888 6.4185 37.5666 0.1189 0.0068 0.0005 -0.1431 0.6031 0.0000
0.8700 0.1550 0.1422 0.4665 0.2668 0.1175 -0.0076 32.1127 1.4491 -0.6861 37.9949 1.0861 6.4595 37.5960 0.1198 0.0068 0.0003 -0.1437 0.6031 0.0000
0.8800 0.1568 0.1444 0.4668 0.2671 0.1183 -0.0090 32.4967 1.4924 -0.6891 38.0154 1.0830 6.4996 37.6252 0.1208 0.0067 0.0001 -0.1443 0.6031 0.0000
0.8900 0.1587 0.1467 0.4670 0.2673 0.1188 -0.0102 32.8810 1.5366 -0.6916 38.0357 1.0796 6.5390 37.6540 0.1217 0.0067 -0.0002 -0.1449 0.6031 0.0000
0.9000 0.1605 0.1490 0.4673 0.2675 0.1190 -0.0115 33.2654 1.5816 -0.6938 38.0557 1.0759 6.5776 37.6826 0.1226 0.0066 -0.0004 -0.1455 0.6031 0.0000
0.9100 0.1624 0.1513 0.4675 0.2677 0.1189 -0.0127 33.6500 1.6273 -0.6955 38.0754 1.0722 6.6154 37.7109 0.1234 0.0065 -0.0006 -0.1461 0.6031 0.0000
0.9200 0.1642 0.1536 0.4678 0.2678 0.1185 -0.0140 34.0348 1.6739 -0.6968 38.0949 1.0684 6.6525 37.7388 0.1243 0.0064 -0.0009 -0.1466 0.6031 0.0000
0.9300 0.1661 0.1559 0.4680 0.2679 0.1180 -0.0153 34.4198 1.7213 -0.6976 38.1142 1.0647 6.6889 37.7665 0.1251 0.0063 -0.0011 -0.1471 0.6031 0.0000
0.9400 0.1679 0.1582 0.4682 0.2679 0.1173 -0.0165 34.8050 1.7696 -0.6980 38.1332 1.0612 6.7244 37.7939 0.1259 0.0063 -0.0013 -0.1476 0.6031 0.0000
0.9500 0.1698 0.1605 0.4684 0.2679 0.1164 -0.0179 35.1903 1.8186 -0.6979 38.1520 1.0578 6.7592 37.8210 0.1267 0.0062 -0.0015 -0.1481 0.6031 0.0000
0.9600 0.1717 0.1628 0.4687 0.2679 0.1154 -0.0192 35.5758 1.8685 -0.6973 38.1706 1.0548 6.7932 37.8478 0.1275 0.0062 -0.0016 -0.1485 0.6031 0.0000
0.9700 0.1735 0.1650 0.4688 0.2678 0.1143 -0.0206 35.9615 1.9192 -0.6963 38.1889 1.0520 6.8264 37.8743 0.1282 0.0061 -0.0018 -0.1490 0.6031 0.0000
0.9800 0.1754 0.1673 0.4690 0.2676 0.1132 -0.0220 36.3473 1.9708 -0.6948 38.2070 1.0495 6.8589 37.9005 0.1289 0.0061 -0.0020 -0.1494 0.6031 0.0000
0.9900 0.1773 0.1695 0.4692 0.2674 0.1120 -0.0234 36.7333 2.0232 -0.6928 38.2249 1.0474 6.8906 37.9264 0.1297 0.0060 -0.0021 -0.1498 0.6031 0.0000
1.0000 0.1792 0.1718 0.4693 0.2672 0.1108 -0.0248 37.1194 2.0764 -0.6903 38.2426 1.0455 6.9215 37.9521 0.1303 0.0060 -0.0022 -0.1502 0.6031 0.0000
1.0100 0.1811 0.1740 0.4695 0.2669 0.1097 -0.0262 37.5057 2.1305 -0.6872 38.2600 1.0440 6.9516 37.9774 0.1310 0.0060 -0.0024 -0.1506 0.6031 0.0000
1.0200 0.1829 0.1762 0.4696 0.2666 0.1086 -0.0277 37.8921 2.1854 -0.6837 38.2772 1.0428 6.9810 38.0025 0.1316 0.0060 -0.0025 -0.1510 0.6031 0.0000
1.0300 0.1848 0.1784 0.4697 0.2662 0.1076 -0.0291 38.2786 2.2411 -0.6797 38.2942 1.0418 7.0096 38.0273 0.1323 0.0060 -0.0025 -0.1514 0.6031 0.0000
1.0400 0.1867 0.1806 0.4698 0.2658 0.1066 -0.0305 38.6652 2.2977 -0.6751 38.3110 1.0411 7.0373 38.0517 0.1329 0.0060 -0.0073 -0.1517 0.6031 0.0000
1.0500 0.1886 0.1828 0.4699 0.2654 0.1031 -0.0385 39.0520 2.3552 -0.6700 38.3276 1.0409 7.0644 38.0759 0.1335 0.0060 -0.0190 -0.1520 0.6031 0.0000
1.0600 0.1905 0.1849 0.4698 0.2648 0.0934 -0.0619 39.4389 2.4135 -0.6644 38.3440 1.0421 7.0908 38.0999 0.1340 0.0061 -0.0296 -0.1524 0.6031 0.0000
1.0700 0.1925 0.1869 0.4694 0.2643 0.0790 -0.0974 39.8258 2.4727 -0.6582 38.3600 1.0457 7.1167 38.1235 0.1346 0.0063 -0.0381 -0.1526 0.6031 0.0000
1.0800 0.1945 0.1888 0.4685 0.2636 0.0617 -0.1403 40.2129 2.5327 -0.6515 38.3756 1.0525 7.1423 38.1469 0.1351 0.0065 -0.0441 -0.1527 0.6031 0.0000
1.0900 0.1967 0.1905 0.4672 0.2628 0.0435 -0.1866 40.6001 2.5936 -0.6442 38.3909 1.0627 7.1675 38.1699 0.1356 0.0069 -0.0481 -0.1527 0.6031 0.0000
1.1000 0.1988 0.1920 0.4654 0.2619 0.0257 -0.2330 40.9873 2.6554 -0.6364 38.4058 1.0762 7.1925 38.1927 0.1361 0.0073 -0.0504 -0.1525 0.6031 0.0000
1.1100 0.2011 0.1933 0.4631 0.2607 0.0097 -0.2772 41.3747 2.7181 -0.6280 38.4204 1.0926 7.2171 38.2153 0.1366 0.0079 -0.0513 -0.1523 0.6031 0.0000
1.1200 0.2034 0.1945 0.4604 0.2592 -0.0039 -0.3176 41.7621 2.7817 -0.6190 38.4346 1.1112 7.2413 38.2375 0.1370 0.0085 -0.0511 -0.1520 0.6031 0.0000
1.1300 0.2058 0.1956 0.4573 0.2576 -0.0146 -0.3532 42.1496 2.8461 -0.6094 38.4485 1.1312 7.2651 38.2594 0.1375 0.0092 -0.0501 -0.1518 0.6031 0.0000
1.1400 0.2082 0.1966 0.4538 0.2557 -0.0222 -0.3837 42.5371 2.9115 -0.5993 38.4621 1.1518 7.2882 38.2811 0.1379 0.0099 -0.0487 -0.1517 0.6031 0.0000
1.1500 0.2106 0.1975 0.4500 0.2537 -0.0267 -0.4090 42.9248 2.9777 -0.5885 38.4756 1.1721 7.3108 38.3025 0.1383 0.0107 -0.0470 -0.1517 0.6031 0.0000
1.1600 0.2130 0.1984 0.4460 0.2516 -0.0283 -0.4294 43.3124 3.0449 -0.5772 38.4888 1.1913 7.3325 38.3236 0.1387 0.0114 -0.0453 -0.1518 0.6031 0.0000
1.1700 0.2153 0.1992 0.4418 0.2494 -0.0273 -0.4453 43.7002 3.1129 -0.5652 38.5020 1.2087 7.3534 38.3444 0.1390 0.0121 -0.0437 -0.1520 0.6031 0.0000
1.1800 0.2177 0.2001 0.4375 0.2471 -0.0242 -0.4574 44.0879 3.1818 -0.5526 38.5150 1.2237 7.3735 38.3650 0.1394 0.0127 -0.0424 -0.1523 0.6031 0.0000
1.1900 0.2200 0.2009 0.4330 0.2449 -0.0195 -0.4664 44.4758 3.2516 -0.5394 38.5280 1.2358 7.3926 38.3853 0.1397 0.0132 -0.0414 -0.1526 0.6031 0.0000
1.2000 0.2223 0.2018 0.4285 0.2427 -0.0137 -0.4731 44.8636 3.3222 -0.5255 38.5409 1.2446 7.4107 38.4053 0.1399 0.0137 -0.0407 -0.1530 0.6031 0.0000
1.2100 0.2245 0.2027 0.4240 0.2406 -0.0072 -0.4781 45.2515 3.3937 -0.5110 38.5538 1.2501 7.4279 38.4250 0.1402 0.0141 -0.0404 -0.1534 0.6031 0.0000
1.2200 0.2267 0.2037 0.4194 0.2385 -0.0006 -0.4821 45.6394 3.4660 -0.4959 38.5667 1.2521 7.4442 38.4445 0.1404 0.0144 -0.0405 -0.1538 0.6031 0.0000
1.2300 0.2289 0.2047 0.4148 0.2365 0.0058 -0.4856 46.0274 3.5392 -0.4800 38.5795 1.2508 7.4595 38.4637 0.1407 0.0146 -0.0410 -0.1542 0.6031 0.0000
1.2400 0.2310 0.2058 0.4101 0.2347 0.0117 -0.4890 46.4154 3.6131 -0.4636 38.5923 1.2462 7.4740 38.4826 0.1408 0.0148 -0.0417 -0.1546 0.6031 0.0000
1.2500 0.2331 0.2069 0.4055 0.2329 0.0168 -0.4926 46.8033 3.6879 -0.4464 38.6051 1.2388 7.4875 38.5012 0.1410 0.0148 -0.0426 -0.1549 0.6031 0.0000
1.2600 0.2352 0.2080 0.4008 0.2312 0.0210 -0.4968 47.1913 3.7635 -0.4286 38.6177 1.2288 7.5003 38.5196 0.1412 0.0148 -0.0436 -0.1552 0.6031 0.0000
1.2700 0.2372 0.2091 0.3961 0.2295 0.0240 -0.5015 47.5793 3.8398 -0.4101 38.6303 1.2166 7.5124 38.5377 0.1413 0.0148 -0.0448 -0.1555 0.6031 0.0000
1.2800 0.2392 0.2102 0.3913 0.2279 0.0260 -0.5067 47.9673 3.9169 -0.3909 38.6428 1.2026 7.5236 38.5556 0.1414 0.0147 -0.0459 -0.1557 0.6031 0.0000
1.2900 0.2412 0.2114 0.3865 0.2264 0.0270 -0.5124 48.3553 3.9948 -0.3710 38.6552 1.1871 7.5342 38.5732 0.1415 0.0146 -0.0470 -0.1558 0.6031 0.0000
1.3000 0.2432 0.2125 0.3816 0.2249 0.0269 -0.5185 48.7433 4.0734 -0.3504 38.6674 1.1705 7.5441 38.5905 0.1416 0.0144 -0.0479 -0.1559 0.6031 0.0000
1.3100 0.2452 0.2136 0.3766 0.2234 0.0261 -0.5248 49.1313 4.1528 -0.3291 38.6795 1.1531 7.5534 38.6076 0.1417 0.0142 -0.0487 -0.1559 0.6031 0.0000
1.3200 0.2472 0.2147 0.3716 0.2219 0.0245 -0.5310 49.5193 4.2330 -0.3071 38.6914 1.1353 7.5620 38.6244 0.1417 0.0141 -0.0494 -0.1559 0.6031 0.0000
1.3300 0.2492 0.2157 0.3665 0.2204 0.0224 -0.5369 49.9073 4.3138 -0.2844 38.7031 1.1172 7.5700 38.6410 0.1418 0.0139 -0.0498 -0.1559 0.6031 0.0000
