     time [s]   theta [rad]     psi [rad]     phi [rad]     q [rad/s]     r [rad/s]     p [rad/s]        pn [m]        pe [m]         h [m]       u [m/s]       v [m/s]       w [m/s]      Va [m/s]   alpha [rad]    beta [rad] delta_a [rad] delta_e [rad]       delta_t delta_r [rad]
23.0000 0.2234 0.0172 -0.0650 -0.0423 -0.0152 0.0647 750.2693 225.5434 50.7650 29.5823 0.8845 3.9922 28.8023 0.1213 -0.0028 0.0067 -0.1379 0.4244 0.0000
23.0100 0.2230 0.0171 -0.0644 -0.0423 -0.0151 0.0639 750.5663 225.5685 50.7922 29.5816 0.8857 3.9877 28.8013 0.1212 -0.0028 0.0066 -0.1379 0.4244 0.0000
23.0200 0.2226 0.0170 -0.0638 -0.0423 -0.0150 0.0631 750.8632 225.5936 50.8193 29.5809 0.8869 3.9832 28.8003 0.1211 -0.0028 0.0065 -0.1378 0.4244 0.0000
23.0300 0.2221 0.0169 -0.0632 -0.0423 -0.0148 0.0624 751.1601 225.6187 50.8463 29.5803 0.8880 3.9787 28.7994 0.1210 -0.0027 0.0064 -0.1377 0.4244 0.0000
23.0400 0.2217 0.0167 -0.0626 -0.0423 -0.0147 0.0617 751.4570 225.6436 50.8733 29.5798 0.8892 3.9744 28.7985 0.1209 -0.0027 0.0064 -0.1377 0.4245 0.0000
23.0500 0.2213 0.0166 -0.0620 -0.0423 -0.0146 0.0609 751.7540 225.6685 50.9001 29.5792 0.8903 3.9701 28.7976 0.1208 -0.0027 0.0063 -0.1376 0.4245 0.0000
23.0600 0.2208 0.0165 -0.0614 -0.0423 -0.0145 0.0602 752.0509 225.6933 50.9269 29.5788 0.8914 3.9658 28.7968 0.1207 -0.0027 0.0062 -0.1375 0.4245 0.0000
23.0700 0.2204 0.0164 -0.0608 -0.0423 -0.0144 0.0595 752.3478 225.7180 50.9535 29.5783 0.8925 3.9616 28.7960 0.1206 -0.0026 0.0061 -0.1375 0.4245 0.0000
23.0800 0.2200 0.0163 -0.0603 -0.0423 -0.0143 0.0588 752.6448 225.7426 50.9801 29.5779 0.8936 3.9575 28.7953 0.1205 -0.0026 0.0061 -0.1374 0.4245 0.0000
23.0900 0.2195 0.0161 -0.0597 -0.0423 -0.0142 0.0581 752.9417 225.7672 51.0065 29.5775 0.8947 3.9535 28.7946 0.1205 -0.0026 0.0060 -0.1373 0.4246 0.0000
23.1000 0.2191 0.0160 -0.0592 -0.0423 -0.0141 0.0574 753.2386 225.7917 51.0329 29.5772 0.8957 3.9495 28.7940 0.1204 -0.0025 0.0059 -0.1373 0.4246 0.0000
23.1100 0.2187 0.0159 -0.0586 -0.0423 -0.0140 0.0567 753.5356 225.8161 51.0592 29.5769 0.8968 3.9456 28.7934 0.1203 -0.0025 0.0058 -0.1372 0.4246 0.0000
23.1200 0.2182 0.0158 -0.0581 -0.0423 -0.0139 0.0561 753.8325 225.8405 51.0854 29.5766 0.8979 3.9417 28.7928 0.1202 -0.0025 0.0058 -0.1372 0.4246 0.0000
23.1300 0.2178 0.0157 -0.0576 -0.0422 -0.0138 0.0554 754.1294 225.8648 51.1114 29.5764 0.8989 3.9379 28.7923 0.1201 -0.0025 0.0057 -0.1371 0.4246 0.0000
23.1400 0.2174 0.0156 -0.0570 -0.0422 -0.0137 0.0547 754.4264 225.8890 51.1374 29.5762 0.8999 3.9342 28.7919 0.1200 -0.0024 0.0056 -0.1371 0.4246 0.0000
23.1500 0.2170 0.0154 -0.0565 -0.0422 -0.0136 0.0541 754.7233 225.9132 51.1633 29.5760 0.9009 3.9305 28.7915 0.1199 -0.0024 0.0056 -0.1370 0.4247 0.0000
23.1600 0.2165 0.0153 -0.0560 -0.0422 -0.0135 0.0534 755.0203 225.9372 51.1891 29.5759 0.9019 3.9269 28.7911 0.1199 -0.0024 0.0055 -0.1370 0.4247 0.0000
23.1700 0.2161 0.0152 -0.0555 -0.0421 -0.0134 0.0528 755.3173 225.9613 51.2148 29.5758 0.9029 3.9233 28.7908 0.1198 -0.0024 0.0054 -0.1369 0.4247 0.0000
23.1800 0.2157 0.0151 -0.0550 -0.0421 -0.0133 0.0522 755.6142 225.9852 51.2404 29.5758 0.9039 3.9198 28.7905 0.1197 -0.0023 0.0054 -0.1369 0.4247 0.0000
23.1900 0.2152 0.0150 -0.0545 -0.0421 -0.0132 0.0516 755.9112 226.0091 51.2659 29.5758 0.9048 3.9164 28.7902 0.1196 -0.0023 0.0053 -0.1368 0.4247 0.0000
23.2000 0.2148 0.0149 -0.0540 -0.0420 -0.0131 0.0509 756.2082 226.0329 51.2913 29.5758 0.9058 3.9130 28.7900 0.1196 -0.0023 0.0052 -0.1368 0.4248 0.0000
23.2100 0.2144 0.0148 -0.0535 -0.0420 -0.0130 0.0503 756.5052 226.0566 51.3166 29.5759 0.9067 3.9096 28.7899 0.1195 -0.0023 0.0052 -0.1367 0.4248 0.0000
23.2200 0.2140 0.0147 -0.0530 -0.0420 -0.0129 0.0497 756.8022 226.0803 51.3418 29.5760 0.9077 3.9064 28.7897 0.1194 -0.0022 0.0051 -0.1367 0.4248 0.0000
23.2300 0.2135 0.0145 -0.0526 -0.0419 -0.0128 0.0491 757.0992 226.1039 51.3669 29.5762 0.9086 3.9032 28.7897 0.1194 -0.0022 0.0050 -0.1367 0.4248 0.0000
23.2400 0.2131 0.0144 -0.0521 -0.0419 -0.0127 0.0485 757.3962 226.1275 51.3919 29.5763 0.9095 3.9000 28.7896 0.1193 -0.0022 0.0050 -0.1366 0.4248 0.0000
23.2500 0.2127 0.0143 -0.0516 -0.0418 -0.0126 0.0480 757.6932 226.1510 51.4168 29.5766 0.9104 3.8969 28.7896 0.1192 -0.0022 0.0049 -0.1366 0.4248 0.0000
23.2600 0.2123 0.0142 -0.0512 -0.0418 -0.0125 0.0474 757.9903 226.1744 51.4416 29.5768 0.9113 3.8939 28.7897 0.1192 -0.0022 0.0049 -0.1365 0.4249 0.0000
23.2700 0.2118 0.0141 -0.0507 -0.0417 -0.0124 0.0468 758.2873 226.1978 51.4663 29.5771 0.9122 3.8909 28.7898 0.1191 -0.0021 0.0048 -0.1365 0.4249 0.0000
23.2800 0.2114 0.0140 -0.0503 -0.0417 -0.0123 0.0463 758.5844 226.2211 51.4909 29.5774 0.9130 3.8880 28.7899 0.1190 -0.0021 0.0047 -0.1365 0.4249 0.0000
23.2900 0.2110 0.0139 -0.0499 -0.0416 -0.0122 0.0457 758.8814 226.2443 51.5154 29.5778 0.9139 3.8851 28.7901 0.1190 -0.0021 0.0047 -0.1364 0.4249 0.0000
23.3000 0.2106 0.0138 -0.0494 -0.0416 -0.0121 0.0452 759.1785 226.2675 51.5398 29.5782 0.9148 3.8823 28.7903 0.1189 -0.0021 0.0046 -0.1364 0.4249 0.0000
23.3100 0.2101 0.0137 -0.0490 -0.0415 -0.0121 0.0446 759.4756 226.2906 51.5641 29.5786 0.9156 3.8795 28.7906 0.1189 -0.0021 0.0046 -0.1364 0.4249 0.0000
23.3200 0.2097 0.0136 -0.0486 -0.0415 -0.0120 0.0441 759.7727 226.3137 51.5883 29.5791 0.9164 3.8768 28.7909 0.1188 -0.0020 0.0045 -0.1363 0.4249 0.0000
23.3300 0.2093 0.0135 -0.0482 -0.0414 -0.0119 0.0436 760.0698 226.3367 51.6124 29.5796 0.9172 3.8741 28.7912 0.1188 -0.0020 0.0045 -0.1363 0.4250 0.0000
23.3400 0.2089 0.0134 -0.0477 -0.0413 -0.0118 0.0430 760.3669 226.3596 51.6364 29.5801 0.9181 3.8715 28.7916 0.1187 -0.0020 0.0044 -0.1363 0.4250 0.0000
23.3500 0.2085 0.0133 -0.0473 -0.0413 -0.0117 0.0425 760.6640 226.3825 51.6602 29.5807 0.9189 3.8690 28.7920 0.1187 -0.0020 0.0044 -0.1363 0.4250 0.0000
23.3600 0.2081 0.0132 -0.0469 -0.0412 -0.0116 0.0420 760.9612 226.4053 51.6840 29.5813 0.9197 3.8665 28.7925 0.1186 -0.0019 0.0043 -0.1362 0.4250 0.0000
23.3700 0.2076 0.0131 -0.0465 -0.0411 -0.0116 0.0415 761.2583 226.4281 51.7077 29.5820 0.9204 3.8640 28.7929 0.1186 -0.0019 0.0043 -0.1362 0.4250 0.0000
23.3800 0.2072 0.0130 -0.0462 -0.0411 -0.0115 0.0410 761.5555 226.4508 51.7313 29.5826 0.9212 3.8616 28.7935 0.1185 -0.0019 0.0042 -0.1362 0.4250 0.0000
23.3900 0.2068 0.0129 -0.0458 -0.0410 -0.0114 0.0405 761.8527 226.4735 51.7548 29.5833 0.9220 3.8593 28.7941 0.1185 -0.0019 0.0041 -0.1362 0.4250 0.0000
23.4000 0.2064 0.0128 -0.0454 -0.0409 -0.0113 0.0400 762.1499 226.4961 51.7781 29.5841 0.9227 3.8570 28.7947 0.1185 -0.0019 0.0041 -0.1361 0.4250 0.0000
23.4100 0.2060 0.0127 -0.0450 -0.0409 -0.0112 0.0395 762.4471 226.5186 51.8014 29.5849 0.9235 3.8547 28.7953 0.1184 -0.0019 0.0040 -0.1361 0.4251 0.0000
23.4200 0.2056 0.0126 -0.0446 -0.0408 -0.0112 0.0391 762.7443 226.5411 51.8246 29.5857 0.9242 3.8525 28.7960 0.1184 -0.0018 0.0040 -0.1361 0.4251 0.0000
23.4300 0.2052 0.0125 -0.0443 -0.0407 -0.0111 0.0386 763.0416 226.5635 51.8477 29.5865 0.9250 3.8503 28.7968 0.1183 -0.0018 0.0039 -0.1361 0.4251 0.0000
23.4400 0.2047 0.0124 -0.0439 -0.0406 -0.0110 0.0381 763.3388 226.5859 51.8706 29.5874 0.9257 3.8482 28.7975 0.1183 -0.0018 0.0039 -0.1360 0.4251 0.0000
23.4500 0.2043 0.0123 -0.0435 -0.0405 -0.0109 0.0377 763.6361 226.6083 51.8935 29.5883 0.9264 3.8462 28.7983 0.1183 -0.0018 0.0039 -0.1360 0.4251 0.0000
23.4600 0.2039 0.0122 -0.0432 -0.0405 -0.0109 0.0372 763.9334 226.6305 51.9162 29.5893 0.9271 3.8442 28.7992 0.1182 -0.0018 0.0038 -0.1360 0.4251 0.0000
23.4700 0.2035 0.0122 -0.0428 -0.0404 -0.0108 0.0368 764.2307 226.6527 51.9389 29.5903 0.9278 3.8422 28.8001 0.1182 -0.0017 0.0038 -0.1360 0.4251 0.0000
23.4800 0.2031 0.0121 -0.0425 -0.0403 -0.0107 0.0363 764.5280 226.6749 51.9614 29.5913 0.9285 3.8403 28.8010 0.1182 -0.0017 0.0037 -0.1360 0.4251 0.0000
23.4900 0.2027 0.0120 -0.0421 -0.0402 -0.0107 0.0359 764.8254 226.6970 51.9839 29.5923 0.9292 3.8384 28.8019 0.1181 -0.0017 0.0037 -0.1360 0.4252 0.0000
23.5000 0.2023 0.0119 -0.0418 -0.0401 -0.0106 0.0355 765.1228 226.7191 52.0062 29.5934 0.9299 3.8366 28.8029 0.1181 -0.0017 0.0036 -0.1360 0.4252 0.0000
23.5100 0.2019 0.0118 -0.0415 -0.0400 -0.0105 0.0350 765.4201 226.7411 52.0285 29.5945 0.9305 3.8348 28.8040 0.1181 -0.0017 0.0036 -0.1359 0.4252 0.0000
23.5200 0.2015 0.0117 -0.0411 -0.0399 -0.0104 0.0346 765.7175 226.7631 52.0506 29.5957 0.9312 3.8331 28.8050 0.1181 -0.0017 0.0035 -0.1359 0.4252 0.0000
23.5300 0.2011 0.0116 -0.0408 -0.0398 -0.0104 0.0342 766.0150 226.7850 52.0726 29.5969 0.9319 3.8314 28.8061 0.1180 -0.0016 0.0035 -0.1359 0.4252 0.0000
23.5400 0.2007 0.0115 -0.0405 -0.0397 -0.0103 0.0338 766.3124 226.8068 52.0945 29.5981 0.9325 3.8297 28.8073 0.1180 -0.0016 0.0034 -0.1359 0.4252 0.0000
23.5500 0.2003 0.0114 -0.0402 -0.0396 -0.0102 0.0334 766.6099 226.8286 52.1164 29.5993 0.9331 3.8281 28.8085 0.1180 -0.0016 0.0034 -0.1359 0.4252 0.0000
23.5600 0.1999 0.0113 -0.0399 -0.0395 -0.0102 0.0330 766.9073 226.8504 52.1381 29.6006 0.9338 3.8266 28.8097 0.1180 -0.0016 0.0034 -0.1359 0.4252 0.0000
23.5700 0.1995 0.0113 -0.0395 -0.0394 -0.0101 0.0326 767.2048 226.8721 52.1597 29.6019 0.9344 3.8251 28.8109 0.1179 -0.0016 0.0033 -0.1359 0.4252 0.0000
23.5800 0.1991 0.0112 -0.0392 -0.0393 -0.0100 0.0322 767.5023 226.8938 52.1812 29.6032 0.9350 3.8236 28.8122 0.1179 -0.0016 0.0033 -0.1359 0.4252 0.0000
23.5900 0.1987 0.0111 -0.0389 -0.0392 -0.0100 0.0318 767.7999 226.9154 52.2026 29.6046 0.9356 3.8221 28.8135 0.1179 -0.0016 0.0032 -0.1359 0.4253 0.0000
23.6000 0.1983 0.0110 -0.0386 -0.0391 -0.0099 0.0314 768.0974 226.9369 52.2239 29.6060 0.9362 3.8208 28.8149 0.1179 -0.0015 0.0032 -0.1359 0.4253 0.0000
23.6100 0.1979 0.0109 -0.0383 -0.0390 -0.0099 0.0310 768.3950 226.9585 52.2451 29.6074 0.9368 3.8194 28.8163 0.1179 -0.0015 0.0032 -0.1359 0.4253 0.0000
23.6200 0.1975 0.0108 -0.0381 -0.0389 -0.0098 0.0306 768.6926 226.9799 52.2662 29.6089 0.9374 3.8181 28.8177 0.1179 -0.0015 0.0031 -0.1359 0.4253 0.0000
23.6300 0.1971 0.0107 -0.0378 -0.0388 -0.0097 0.0303 768.9903 227.0014 52.2872 29.6104 0.9380 3.8168 28.8192 0.1178 -0.0015 0.0031 -0.1359 0.4253 0.0000
23.6400 0.1967 0.0107 -0.0375 -0.0387 -0.0097 0.0299 769.2879 227.0227 52.3081 29.6119 0.9386 3.8156 28.8207 0.1178 -0.0015 0.0030 -0.1359 0.4253 0.0000
23.6500 0.1963 0.0106 -0.0372 -0.0386 -0.0096 0.0295 769.5856 227.0441 52.3288 29.6135 0.9392 3.8144 28.8222 0.1178 -0.0015 0.0030 -0.1359 0.4253 0.0000
23.6600 0.1959 0.0105 -0.0369 -0.0385 -0.0096 0.0292 769.8833 227.0654 52.3495 29.6151 0.9397 3.8133 28.8238 0.1178 -0.0015 0.0030 -0.1359 0.4253 0.0000
23.6700 0.1956 0.0104 -0.0366 -0.0384 -0.0095 0.0288 770.1810 227.0866 52.3701 29.6167 0.9403 3.8121 28.8254 0.1178 -0.0014 0.0029 -0.1359 0.4253 0.0000
23.6800 0.1952 0.0103 -0.0364 -0.0382 -0.0094 0.0285 770.4787 227.1078 52.3905 29.6183 0.9408 3.8111 28.8270 0.1178 -0.0014 0.0029 -0.1359 0.4253 0.0000
23.6900 0.1948 0.0102 -0.0361 -0.0381 -0.0094 0.0281 770.7765 227.1289 52.4109 29.6200 0.9414 3.8100 28.8286 0.1178 -0.0014 0.0029 -0.1359 0.4253 0.0000
23.7000 0.1944 0.0102 -0.0358 -0.0380 -0.0093 0.0278 771.0743 227.1500 52.4312 29.6217 0.9419 3.8090 28.8303 0.1178 -0.0014 0.0028 -0.1359 0.4253 0.0000
23.7100 0.1940 0.0101 -0.0356 -0.0379 -0.0093 0.0275 771.3721 227.1711 52.4513 29.6234 0.9424 3.8081 28.8321 0.1178 -0.0014 0.0028 -0.1359 0.4254 0.0000
23.7200 0.1936 0.0100 -0.0353 -0.0378 -0.0092 0.0271 771.6699 227.1921 52.4714 29.6252 0.9430 3.8072 28.8338 0.1178 -0.0014 0.0028 -0.1359 0.4254 0.0000
23.7300 0.1933 0.0099 -0.0351 -0.0377 -0.0092 0.0268 771.9678 227.2131 52.4913 29.6270 0.9435 3.8063 28.8356 0.1178 -0.0014 0.0027 -0.1359 0.4254 0.0000
23.7400 0.1929 0.0098 -0.0348 -0.0375 -0.0091 0.0265 772.2657 227.2340 52.5112 29.6288 0.9440 3.8054 28.8374 0.1178 -0.0013 0.0027 -0.1359 0.4254 0.0000
23.7500 0.1925 0.0098 -0.0346 -0.0374 -0.0091 0.0262 772.5636 227.2549 52.5309 29.6306 0.9445 3.8046 28.8393 0.1178 -0.0013 0.0027 -0.1359 0.4254 0.0000
23.7600 0.1921 0.0097 -0.0343 -0.0373 -0.0090 0.0259 772.8615 227.2758 52.5505 29.6325 0.9450 3.8038 28.8412 0.1177 -0.0013 0.0026 -0.1359 0.4254 0.0000
23.7700 0.1918 0.0096 -0.0341 -0.0372 -0.0089 0.0255 773.1595 227.2966 52.5701 29.6344 0.9455 3.8031 28.8431 0.1177 -0.0013 0.0026 -0.1359 0.4254 0.0000
23.7800 0.1914 0.0095 -0.0338 -0.0370 -0.0089 0.0252 773.4575 227.3173 52.5895 29.6363 0.9460 3.8024 28.8451 0.1178 -0.0013 0.0026 -0.1359 0.4254 0.0000
23.7900 0.1910 0.0094 -0.0336 -0.0369 -0.0088 0.0249 773.7555 227.3380 52.6088 29.6383 0.9465 3.8017 28.8470 0.1178 -0.0013 0.0025 -0.1359 0.4254 0.0000
23.8000 0.1906 0.0094 -0.0334 -0.0368 -0.0088 0.0246 774.0536 227.3587 52.6280 29.6403 0.9470 3.8011 28.8491 0.1178 -0.0013 0.0025 -0.1359 0.4254 0.0000
23.8100 0.1903 0.0093 -0.0331 -0.0367 -0.0087 0.0243 774.3516 227.3794 52.6472 29.6423 0.9474 3.8005 28.8511 0.1178 -0.0013 0.0025 -0.1359 0.4254 0.0000
23.8200 0.1899 0.0092 -0.0329 -0.0365 -0.0087 0.0241 774.6497 227.3999 52.6662 29.6443 0.9479 3.7999 28.8532 0.1178 -0.0012 0.0024 -0.1359 0.4254 0.0000
23.8300 0.1895 0.0091 -0.0327 -0.0364 -0.0086 0.0238 774.9478 227.4205 52.6851 29.6464 0.9484 3.7993 28.8553 0.1178 -0.0012 0.0024 -0.1359 0.4254 0.0000
23.8400 0.1892 0.0091 -0.0325 -0.0363 -0.0086 0.0235 775.2460 227.4410 52.7039 29.6485 0.9488 3.7988 28.8574 0.1178 -0.0012 0.0024 -0.1360 0.4254 0.0000
23.8500 0.1888 0.0090 -0.0323 -0.0362 -0.0085 0.0232 775.5442 227.4615 52.7226 29.6506 0.9493 3.7983 28.8596 0.1178 -0.0012 0.0023 -0.1360 0.4254 0.0000
23.8600 0.1884 0.0089 -0.0320 -0.0360 -0.0085 0.0229 775.8424 227.4819 52.7412 29.6528 0.9497 3.7979 28.8618 0.1178 -0.0012 0.0023 -0.1360 0.4254 0.0000
23.8700 0.1881 0.0088 -0.0318 -0.0359 -0.0085 0.0226 776.1406 227.5023 52.7597 29.6549 0.9502 3.7975 28.8640 0.1178 -0.0012 0.0023 -0.1360 0.4254 0.0000
23.8800 0.1877 0.0088 -0.0316 -0.0358 -0.0084 0.0224 776.4389 227.5227 52.7781 29.6571 0.9506 3.7971 28.8662 0.1178 -0.0012 0.0023 -0.1360 0.4254 0.0000
23.8900 0.1874 0.0087 -0.0314 -0.0356 -0.0084 0.0221 776.7372 227.5430 52.7964 29.6594 0.9510 3.7967 28.8685 0.1178 -0.0012 0.0022 -0.1360 0.4254 0.0000
23.9000 0.1870 0.0086 -0.0312 -0.0355 -0.0083 0.0218 777.0355 227.5633 52.8146 29.6616 0.9515 3.7964 28.8708 0.1178 -0.0012 0.0022 -0.1360 0.4255 0.0000
23.9100 0.1866 0.0085 -0.0310 -0.0354 -0.0083 0.0216 777.3339 227.5835 52.8327 29.6639 0.9519 3.7961 28.8731 0.1178 -0.0012 0.0022 -0.1361 0.4255 0.0000
23.9200 0.1863 0.0085 -0.0308 -0.0352 -0.0082 0.0213 777.6323 227.6037 52.8507 29.6662 0.9523 3.7959 28.8755 0.1179 -0.0011 0.0022 -0.1361 0.4255 0.0000
23.9300 0.1859 0.0084 -0.0306 -0.0351 -0.0082 0.0211 777.9307 227.6239 52.8686 29.6685 0.9527 3.7956 28.8779 0.1179 -0.0011 0.0021 -0.1361 0.4255 0.0000
23.9400 0.1856 0.0083 -0.0304 -0.0349 -0.0081 0.0208 778.2291 227.6440 52.8864 29.6709 0.9531 3.7954 28.8803 0.1179 -0.0011 0.0021 -0.1361 0.4255 0.0000
23.9500 0.1852 0.0083 -0.0302 -0.0348 -0.0081 0.0206 778.5276 227.6641 52.9041 29.6732 0.9535 3.7952 28.8828 0.1179 -0.0011 0.0021 -0.1361 0.4255 0.0000
23.9600 0.1849 0.0082 -0.0300 -0.0347 -0.0081 0.0203 778.8261 227.6841 52.9217 29.6756 0.9539 3.7951 28.8852 0.1179 -0.0011 0.0021 -0.1361 0.4255 0.0000
23.9700 0.1845 0.0081 -0.0298 -0.0345 -0.0080 0.0201 779.1247 227.7042 52.9392 29.6781 0.9543 3.7950 28.8877 0.1179 -0.0011 0.0020 -0.1361 0.4255 0.0000
23.9800 0.1842 0.0080 -0.0296 -0.0344 -0.0080 0.0199 779.4232 227.7241 52.9566 29.6805 0.9547 3.7949 28.8902 0.1179 -0.0011 0.0020 -0.1362 0.4255 0.0000
23.9900 0.1838 0.0080 -0.0295 -0.0343 -0.0079 0.0196 779.7218 227.7441 52.9739 29.6830 0.9551 3.7948 28.8928 0.1180 -0.0011 0.0020 -0.1362 0.4255 0.0000
24.0000 0.1835 0.0079 -0.0293 -0.0341 -0.0079 0.0194 780.0205 227.7640 52.9911 29.6855 0.9555 3.7948 28.8954 0.1180 -0.0011 0.0020 -0.1362 0.4255 0.0000
24.0100 0.1831 0.0078 -0.0291 -0.0340 -0.0079 0.0192 780.3191 227.7839 53.0082 29.6880 0.9559 3.7947 28.8980 0.1180 -0.0011 0.0019 -0.1362 0.4255 0.0000
24.0200 0.1828 0.0078 -0.0289 -0.0338 -0.0078 0.0189 780.6178 227.8037 53.0252 29.6905 0.9562 3.7948 28.9006 0.1180 -0.0010 0.0019 -0.1362 0.4255 0.0000
24.0300 0.1825 0.0077 -0.0287 -0.0337 -0.0078 0.0187 780.9165 227.8235 53.0421 29.6931 0.9566 3.7948 28.9033 0.1180 -0.0010 0.0019 -0.1363 0.4255 0.0000
24.0400 0.1821 0.0076 -0.0286 -0.0335 -0.0077 0.0185 781.2153 227.8433 53.0589 29.6957 0.9570 3.7949 28.9059 0.1180 -0.0010 0.0019 -0.1363 0.4255 0.0000
24.0500 0.1818 0.0076 -0.0284 -0.0334 -0.0077 0.0183 781.5141 227.8630 53.0756 29.6983 0.9573 3.7949 28.9086 0.1181 -0.0010 0.0018 -0.1363 0.4255 0.0000
24.0600 0.1815 0.0075 -0.0282 -0.0333 -0.0077 0.0181 781.8129 227.8827 53.0922 29.7009 0.9577 3.7950 28.9114 0.1181 -0.0010 0.0018 -0.1363 0.4255 0.0000
24.0700 0.1811 0.0074 -0.0281 -0.0331 -0.0076 0.0178 782.1118 227.9023 53.1087 29.7036 0.9580 3.7952 28.9141 0.1181 -0.0010 0.0018 -0.1364 0.4255 0.0000
24.0800 0.1808 0.0074 -0.0279 -0.0330 -0.0076 0.0176 782.4107 227.9220 53.1251 29.7062 0.9584 3.7953 28.9169 0.1181 -0.0010 0.0018 -0.1364 0.4255 0.0000
24.0900 0.1805 0.0073 -0.0277 -0.0328 -0.0075 0.0174 782.7096 227.9415 53.1414 29.7089 0.9587 3.7955 28.9197 0.1182 -0.0010 0.0018 -0.1364 0.4255 0.0000
24.1000 0.1801 0.0072 -0.0276 -0.0327 -0.0075 0.0172 783.0086 227.9611 53.1576 29.7116 0.9591 3.7957 28.9225 0.1182 -0.0010 0.0017 -0.1364 0.4255 0.0000
24.1100 0.1798 0.0071 -0.0274 -0.0325 -0.0075 0.0170 783.3075 227.9806 53.1737 29.7144 0.9594 3.7960 28.9254 0.1182 -0.0010 0.0017 -0.1364 0.4255 0.0000
24.1200 0.1795 0.0071 -0.0273 -0.0324 -0.0074 0.0168 783.6066 228.0001 53.1898 29.7171 0.9598 3.7962 28.9282 0.1182 -0.0010 0.0017 -0.1365 0.4255 0.0000
24.1300 0.1792 0.0070 -0.0271 -0.0322 -0.0074 0.0166 783.9056 228.0196 53.2057 29.7199 0.9601 3.7965 28.9311 0.1183 -0.0010 0.0017 -0.1365 0.4255 0.0000
24.1400 0.1788 0.0069 -0.0269 -0.0321 -0.0074 0.0164 784.2047 228.0390 53.2215 29.7227 0.9604 3.7968 28.9340 0.1183 -0.0009 0.0016 -0.1365 0.4255 0.0000
24.1500 0.1785 0.0069 -0.0268 -0.0319 -0.0073 0.0162 784.5039 228.0584 53.2372 29.7255 0.9607 3.7971 28.9370 0.1183 -0.0009 0.0016 -0.1365 0.4255 0.0000
24.1600 0.1782 0.0068 -0.0266 -0.0318 -0.0073 0.0161 784.8030 228.0777 53.2529 29.7284 0.9611 3.7974 28.9399 0.1183 -0.0009 0.0016 -0.1366 0.4255 0.0000
24.1700 0.1779 0.0068 -0.0265 -0.0317 -0.0073 0.0159 785.1022 228.0971 53.2684 29.7312 0.9614 3.7978 28.9429 0.1184 -0.0009 0.0016 -0.1366 0.4255 0.0000
24.1800 0.1775 0.0067 -0.0263 -0.0315 -0.0072 0.0157 785.4014 228.1164 53.2838 29.7341 0.9617 3.7982 28.9459 0.1184 -0.0009 0.0016 -0.1366 0.4255 0.0000
24.1900 0.1772 0.0066 -0.0262 -0.0314 -0.0072 0.0155 785.7007 228.1356 53.2992 29.7370 0.9620 3.7986 28.9489 0.1184 -0.0009 0.0016 -0.1366 0.4255 0.0000
24.2000 0.1769 0.0066 -0.0261 -0.0312 -0.0072 0.0153 786.0000 228.1548 53.3144 29.7399 0.9623 3.7990 28.9520 0.1184 -0.0009 0.0015 -0.1367 0.4255 0.0000
24.2100 0.1766 0.0065 -0.0259 -0.0311 -0.0071 0.0152 786.2994 228.1740 53.3296 29.7429 0.9626 3.7994 28.9551 0.1185 -0.0009 0.0015 -0.1367 0.4255 0.0000
24.2200 0.1763 0.0064 -0.0258 -0.0309 -0.0071 0.0150 786.5987 228.1932 53.3447 29.7458 0.9629 3.7999 28.9581 0.1185 -0.0009 0.0015 -0.1367 0.4255 0.0000
24.2300 0.1760 0.0064 -0.0256 -0.0308 -0.0071 0.0148 786.8981 228.2123 53.3596 29.7488 0.9632 3.8004 28.9612 0.1185 -0.0009 0.0015 -0.1367 0.4255 0.0000
24.2400 0.1757 0.0063 -0.0255 -0.0306 -0.0070 0.0146 787.1976 228.2314 53.3745 29.7518 0.9635 3.8009 28.9644 0.1186 -0.0009 0.0015 -0.1368 0.4255 0.0000
24.2500 0.1754 0.0062 -0.0254 -0.0305 -0.0070 0.0145 787.4971 228.2505 53.3893 29.7548 0.9638 3.8014 28.9675 0.1186 -0.0009 0.0014 -0.1368 0.4255 0.0000
24.2600 0.1751 0.0062 -0.0252 -0.0303 -0.0070 0.0143 787.7966 228.2696 53.4040 29.7579 0.9641 3.8019 28.9707 0.1186 -0.0009 0.0014 -0.1368 0.4255 0.0000
24.2700 0.1748 0.0061 -0.0251 -0.0302 -0.0070 0.0141 788.0961 228.2886 53.4186 29.7609 0.9644 3.8025 28.9739 0.1187 -0.0009 0.0014 -0.1369 0.4255 0.0000
