     time [s]   theta [rad]     psi [rad]     phi [rad]     q [rad/s]     r [rad/s]     p [rad/s]        pn [m]        pe [m]         h [m]       u [m/s]       v [m/s]       w [m/s]      Va [m/s]   alpha [rad]    beta [rad] delta_a [rad] delta_e [rad]       delta_t delta_r [rad]
23.0000 0.2645 0.0035 -0.0556 -0.0428 -0.0125 0.0587 705.0142 213.5338 49.4863 27.0411 0.8914 4.5226 28.4807 0.1233 -0.0025 0.0061 -0.1394 0.4350 0.0000
23.0100 0.2641 0.0034 -0.0550 -0.0428 -0.0124 0.0580 705.2868 213.5578 49.5139 27.0409 0.8924 4.5192 28.4799 0.1232 -0.0025 0.0060 -0.1394 0.4350 0.0000
23.0200 0.2636 0.0033 -0.0545 -0.0428 -0.0123 0.0573 705.5595 213.5819 49.5413 27.0407 0.8935 4.5158 28.4791 0.1231 -0.0025 0.0060 -0.1393 0.4350 0.0000
23.0300 0.2632 0.0032 -0.0540 -0.0428 -0.0122 0.0566 705.8321 213.6058 49.5687 27.0405 0.8945 4.5125 28.4784 0.1230 -0.0024 0.0059 -0.1392 0.4350 0.0000
23.0400 0.2628 0.0031 -0.0534 -0.0428 -0.0121 0.0560 706.1048 213.6297 49.5959 27.0404 0.8956 4.5093 28.4778 0.1229 -0.0024 0.0058 -0.1392 0.4351 0.0000
23.0500 0.2623 0.0030 -0.0529 -0.0428 -0.0120 0.0553 706.3774 213.6535 49.6231 27.0403 0.8966 4.5062 28.4771 0.1228 -0.0024 0.0058 -0.1391 0.4351 0.0000
23.0600 0.2619 0.0029 -0.0524 -0.0428 -0.0119 0.0546 706.6501 213.6772 49.6502 27.0403 0.8976 4.5031 28.4766 0.1227 -0.0023 0.0057 -0.1391 0.4351 0.0000
23.0700 0.2614 0.0028 -0.0518 -0.0428 -0.0118 0.0540 706.9228 213.7009 49.6772 27.0403 0.8986 4.5000 28.4760 0.1226 -0.0023 0.0056 -0.1390 0.4351 0.0000
23.0800 0.2610 0.0027 -0.0513 -0.0428 -0.0117 0.0533 707.1955 213.7245 49.7040 27.0403 0.8995 4.4971 28.4755 0.1225 -0.0023 0.0056 -0.1389 0.4351 0.0000
23.0900 0.2606 0.0026 -0.0508 -0.0428 -0.0116 0.0527 707.4682 213.7481 49.7308 27.0404 0.9005 4.4942 28.4751 0.1225 -0.0023 0.0055 -0.1389 0.4352 0.0000
23.1000 0.2602 0.0025 -0.0503 -0.0428 -0.0116 0.0520 707.7409 213.7715 49.7575 27.0405 0.9014 4.4913 28.4747 0.1224 -0.0022 0.0054 -0.1388 0.4352 0.0000
23.1100 0.2597 0.0024 -0.0498 -0.0427 -0.0115 0.0514 708.0136 213.7950 49.7841 27.0406 0.9024 4.4886 28.4743 0.1223 -0.0022 0.0054 -0.1388 0.4352 0.0000
23.1200 0.2593 0.0023 -0.0494 -0.0427 -0.0114 0.0508 708.2863 213.8183 49.8106 27.0408 0.9033 4.4858 28.4740 0.1222 -0.0022 0.0053 -0.1387 0.4352 0.0000
23.1300 0.2589 0.0022 -0.0489 -0.0427 -0.0113 0.0502 708.5590 213.8416 49.8370 27.0410 0.9042 4.4832 28.4737 0.1221 -0.0022 0.0052 -0.1387 0.4353 0.0000
23.1400 0.2584 0.0021 -0.0484 -0.0427 -0.0112 0.0496 708.8317 213.8648 49.8633 27.0413 0.9051 4.4806 28.4735 0.1220 -0.0022 0.0052 -0.1386 0.4353 0.0000
23.1500 0.2580 0.0020 -0.0479 -0.0426 -0.0111 0.0490 709.1045 213.8880 49.8896 27.0416 0.9060 4.4780 28.4733 0.1220 -0.0021 0.0051 -0.1386 0.4353 0.0000
23.1600 0.2576 0.0019 -0.0475 -0.0426 -0.0110 0.0484 709.3772 213.9111 49.9157 27.0420 0.9069 4.4756 28.4732 0.1219 -0.0021 0.0050 -0.1385 0.4353 0.0000
23.1700 0.2571 0.0018 -0.0470 -0.0426 -0.0109 0.0478 709.6500 213.9341 49.9417 27.0423 0.9078 4.4731 28.4731 0.1218 -0.0021 0.0050 -0.1385 0.4353 0.0000
23.1800 0.2567 0.0017 -0.0466 -0.0425 -0.0108 0.0472 709.9227 213.9571 49.9676 27.0427 0.9087 4.4708 28.4730 0.1217 -0.0021 0.0049 -0.1384 0.4354 0.0000
23.1900 0.2563 0.0016 -0.0461 -0.0425 -0.0107 0.0466 710.1955 213.9800 49.9934 27.0432 0.9095 4.4685 28.4730 0.1217 -0.0020 0.0049 -0.1384 0.4354 0.0000
23.2000 0.2558 0.0015 -0.0457 -0.0424 -0.0107 0.0461 710.4683 214.0028 50.0192 27.0437 0.9104 4.4662 28.4731 0.1216 -0.0020 0.0048 -0.1383 0.4354 0.0000
23.2100 0.2554 0.0014 -0.0452 -0.0424 -0.0106 0.0455 710.7411 214.0256 50.0448 27.0442 0.9112 4.4640 28.4731 0.1215 -0.0020 0.0047 -0.1383 0.4354 0.0000
23.2200 0.2550 0.0013 -0.0448 -0.0423 -0.0105 0.0450 711.0140 214.0484 50.0703 27.0448 0.9120 4.4619 28.4733 0.1215 -0.0020 0.0047 -0.1383 0.4354 0.0000
23.2300 0.2546 0.0013 -0.0444 -0.0423 -0.0104 0.0444 711.2868 214.0710 50.0957 27.0454 0.9128 4.4598 28.4734 0.1214 -0.0020 0.0046 -0.1382 0.4355 0.0000
23.2400 0.2541 0.0012 -0.0440 -0.0423 -0.0103 0.0439 711.5596 214.0937 50.1211 27.0460 0.9136 4.4578 28.4736 0.1214 -0.0019 0.0046 -0.1382 0.4355 0.0000
23.2500 0.2537 0.0011 -0.0435 -0.0422 -0.0103 0.0434 711.8325 214.1162 50.1463 27.0467 0.9144 4.4558 28.4739 0.1213 -0.0019 0.0045 -0.1382 0.4355 0.0000
23.2600 0.2533 0.0010 -0.0431 -0.0421 -0.0102 0.0428 712.1054 214.1387 50.1714 27.0474 0.9152 4.4539 28.4742 0.1212 -0.0019 0.0044 -0.1381 0.4355 0.0000
23.2700 0.2529 0.0009 -0.0427 -0.0421 -0.0101 0.0423 712.3783 214.1612 50.1964 27.0482 0.9160 4.4520 28.4745 0.1212 -0.0019 0.0044 -0.1381 0.4355 0.0000
23.2800 0.2524 0.0008 -0.0423 -0.0420 -0.0100 0.0418 712.6512 214.1836 50.2214 27.0489 0.9167 4.4502 28.4749 0.1211 -0.0019 0.0043 -0.1381 0.4355 0.0000
23.2900 0.2520 0.0007 -0.0419 -0.0420 -0.0099 0.0413 712.9241 214.2059 50.2462 27.0498 0.9175 4.4484 28.4753 0.1211 -0.0018 0.0043 -0.1380 0.4356 0.0000
23.3000 0.2516 0.0007 -0.0416 -0.0419 -0.0099 0.0408 713.1970 214.2282 50.2709 27.0506 0.9182 4.4467 28.4757 0.1210 -0.0018 0.0042 -0.1380 0.4356 0.0000
23.3100 0.2512 0.0006 -0.0412 -0.0418 -0.0098 0.0403 713.4700 214.2504 50.2956 27.0515 0.9190 4.4451 28.4762 0.1210 -0.0018 0.0042 -0.1380 0.4356 0.0000
23.3200 0.2507 0.0005 -0.0408 -0.0418 -0.0097 0.0398 713.7430 214.2726 50.3201 27.0524 0.9197 4.4435 28.4768 0.1209 -0.0018 0.0041 -0.1379 0.4356 0.0000
23.3300 0.2503 0.0004 -0.0404 -0.0417 -0.0096 0.0393 714.0160 214.2947 50.3445 27.0534 0.9204 4.4419 28.4773 0.1209 -0.0018 0.0041 -0.1379 0.4356 0.0000
23.3400 0.2499 0.0003 -0.0400 -0.0416 -0.0096 0.0388 714.2890 214.3168 50.3688 27.0544 0.9211 4.4404 28.4779 0.1208 -0.0017 0.0040 -0.1379 0.4357 0.0000
23.3500 0.2495 0.0002 -0.0397 -0.0416 -0.0095 0.0384 714.5620 214.3388 50.3931 27.0554 0.9218 4.4389 28.4786 0.1208 -0.0017 0.0040 -0.1379 0.4357 0.0000
23.3600 0.2491 0.0002 -0.0393 -0.0415 -0.0094 0.0379 714.8350 214.3607 50.4172 27.0565 0.9225 4.4375 28.4793 0.1207 -0.0017 0.0039 -0.1378 0.4357 0.0000
23.3700 0.2486 0.0001 -0.0390 -0.0414 -0.0093 0.0374 715.1081 214.3826 50.4412 27.0576 0.9232 4.4362 28.4800 0.1207 -0.0017 0.0039 -0.1378 0.4357 0.0000
23.3800 0.2482 0.0000 -0.0386 -0.0414 -0.0093 0.0370 715.3812 214.4045 50.4651 27.0587 0.9239 4.4349 28.4808 0.1206 -0.0017 0.0038 -0.1378 0.4357 0.0000
23.3900 0.2478 -0.0001 -0.0383 -0.0413 -0.0092 0.0365 715.6543 214.4263 50.4889 27.0599 0.9245 4.4336 28.4816 0.1206 -0.0016 0.0038 -0.1378 0.4357 0.0000
23.4000 0.2474 -0.0002 -0.0379 -0.0412 -0.0091 0.0361 715.9274 214.4481 50.5126 27.0611 0.9252 4.4324 28.4825 0.1206 -0.0016 0.0037 -0.1377 0.4358 0.0000
23.4100 0.2470 -0.0002 -0.0376 -0.0411 -0.0091 0.0357 716.2006 214.4698 50.5363 27.0624 0.9258 4.4312 28.4834 0.1205 -0.0016 0.0037 -0.1377 0.4358 0.0000
23.4200 0.2466 -0.0003 -0.0372 -0.0410 -0.0090 0.0352 716.4737 214.4914 50.5598 27.0636 0.9265 4.4301 28.4843 0.1205 -0.0016 0.0036 -0.1377 0.4358 0.0000
23.4300 0.2461 -0.0004 -0.0369 -0.0410 -0.0089 0.0348 716.7469 214.5130 50.5832 27.0650 0.9271 4.4290 28.4853 0.1205 -0.0016 0.0036 -0.1377 0.4358 0.0000
23.4400 0.2457 -0.0005 -0.0366 -0.0409 -0.0089 0.0344 717.0201 214.5346 50.6065 27.0663 0.9277 4.4279 28.4863 0.1204 -0.0016 0.0036 -0.1377 0.4358 0.0000
23.4500 0.2453 -0.0005 -0.0363 -0.0408 -0.0088 0.0339 717.2934 214.5561 50.6297 27.0677 0.9283 4.4270 28.4874 0.1204 -0.0015 0.0035 -0.1377 0.4358 0.0000
23.4600 0.2449 -0.0006 -0.0359 -0.0407 -0.0087 0.0335 717.5666 214.5776 50.6528 27.0691 0.9289 4.4260 28.4884 0.1204 -0.0015 0.0035 -0.1376 0.4358 0.0000
23.4700 0.2445 -0.0007 -0.0356 -0.0406 -0.0087 0.0331 717.8399 214.5990 50.6758 27.0705 0.9295 4.4251 28.4896 0.1203 -0.0015 0.0034 -0.1376 0.4359 0.0000
23.4800 0.2441 -0.0008 -0.0353 -0.0405 -0.0086 0.0327 718.1132 214.6203 50.6987 27.0720 0.9301 4.4242 28.4907 0.1203 -0.0015 0.0034 -0.1376 0.4359 0.0000
23.4900 0.2437 -0.0008 -0.0350 -0.0404 -0.0085 0.0323 718.3865 214.6417 50.7215 27.0735 0.9307 4.4234 28.4919 0.1203 -0.0015 0.0033 -0.1376 0.4359 0.0000
23.5000 0.2433 -0.0009 -0.0347 -0.0403 -0.0085 0.0319 718.6598 214.6629 50.7441 27.0751 0.9313 4.4227 28.4932 0.1202 -0.0015 0.0033 -0.1376 0.4359 0.0000
23.5100 0.2429 -0.0010 -0.0344 -0.0402 -0.0084 0.0315 718.9332 214.6842 50.7667 27.0766 0.9319 4.4219 28.4944 0.1202 -0.0015 0.0033 -0.1376 0.4359 0.0000
23.5200 0.2425 -0.0011 -0.0341 -0.0401 -0.0084 0.0312 719.2066 214.7054 50.7892 27.0782 0.9324 4.4212 28.4958 0.1202 -0.0014 0.0032 -0.1376 0.4359 0.0000
23.5300 0.2421 -0.0011 -0.0338 -0.0400 -0.0083 0.0308 719.4800 214.7265 50.8116 27.0799 0.9330 4.4206 28.4971 0.1202 -0.0014 0.0032 -0.1376 0.4359 0.0000
23.5400 0.2417 -0.0012 -0.0335 -0.0399 -0.0082 0.0304 719.7535 214.7476 50.8339 27.0816 0.9335 4.4200 28.4985 0.1202 -0.0014 0.0031 -0.1376 0.4360 0.0000
23.5500 0.2413 -0.0013 -0.0332 -0.0398 -0.0082 0.0300 720.0269 214.7686 50.8560 27.0833 0.9341 4.4194 28.4999 0.1201 -0.0014 0.0031 -0.1375 0.4360 0.0000
23.5600 0.2409 -0.0013 -0.0330 -0.0397 -0.0081 0.0297 720.3004 214.7896 50.8781 27.0850 0.9346 4.4189 28.5014 0.1201 -0.0014 0.0031 -0.1375 0.4360 0.0000
23.5700 0.2405 -0.0014 -0.0327 -0.0396 -0.0081 0.0293 720.5740 214.8106 50.9001 27.0868 0.9351 4.4184 28.5029 0.1201 -0.0014 0.0030 -0.1375 0.4360 0.0000
23.5800 0.2401 -0.0015 -0.0324 -0.0395 -0.0080 0.0289 720.8475 214.8315 50.9219 27.0886 0.9357 4.4179 28.5044 0.1201 -0.0014 0.0030 -0.1375 0.4360 0.0000
23.5900 0.2397 -0.0015 -0.0321 -0.0394 -0.0080 0.0286 721.1211 214.8524 50.9437 27.0904 0.9362 4.4175 28.5060 0.1201 -0.0013 0.0030 -0.1375 0.4360 0.0000
23.6000 0.2393 -0.0016 -0.0319 -0.0393 -0.0079 0.0282 721.3947 214.8732 50.9654 27.0923 0.9367 4.4171 28.5076 0.1201 -0.0013 0.0029 -0.1375 0.4360 0.0000
23.6100 0.2389 -0.0017 -0.0316 -0.0392 -0.0079 0.0279 721.6683 214.8940 50.9869 27.0942 0.9372 4.4168 28.5092 0.1200 -0.0013 0.0029 -0.1375 0.4360 0.0000
23.6200 0.2385 -0.0017 -0.0313 -0.0391 -0.0078 0.0276 721.9420 214.9147 51.0084 27.0961 0.9377 4.4165 28.5109 0.1200 -0.0013 0.0028 -0.1375 0.4360 0.0000
23.6300 0.2381 -0.0018 -0.0311 -0.0390 -0.0077 0.0272 722.2156 214.9354 51.0297 27.0980 0.9382 4.4162 28.5126 0.1200 -0.0013 0.0028 -0.1375 0.4361 0.0000
23.6400 0.2377 -0.0019 -0.0308 -0.0389 -0.0077 0.0269 722.4893 214.9561 51.0510 27.1000 0.9386 4.4160 28.5143 0.1200 -0.0013 0.0028 -0.1375 0.4361 0.0000
23.6500 0.2373 -0.0019 -0.0306 -0.0388 -0.0076 0.0266 722.7631 214.9767 51.0721 27.1020 0.9391 4.4158 28.5161 0.1200 -0.0013 0.0027 -0.1375 0.4361 0.0000
23.6600 0.2369 -0.0020 -0.0303 -0.0386 -0.0076 0.0262 723.0369 214.9973 51.0931 27.1041 0.9396 4.4156 28.5179 0.1200 -0.0012 0.0027 -0.1375 0.4361 0.0000
23.6700 0.2365 -0.0021 -0.0301 -0.0385 -0.0075 0.0259 723.3107 215.0178 51.1141 27.1062 0.9400 4.4155 28.5197 0.1200 -0.0012 0.0027 -0.1375 0.4361 0.0000
23.6800 0.2361 -0.0021 -0.0298 -0.0384 -0.0075 0.0256 723.5845 215.0383 51.1349 27.1083 0.9405 4.4154 28.5216 0.1200 -0.0012 0.0026 -0.1375 0.4361 0.0000
23.6900 0.2358 -0.0022 -0.0296 -0.0383 -0.0074 0.0253 723.8583 215.0588 51.1557 27.1104 0.9410 4.4154 28.5235 0.1200 -0.0012 0.0026 -0.1375 0.4361 0.0000
23.7000 0.2354 -0.0023 -0.0294 -0.0382 -0.0074 0.0250 724.1322 215.0792 51.1763 27.1125 0.9414 4.4153 28.5255 0.1200 -0.0012 0.0026 -0.1375 0.4361 0.0000
23.7100 0.2350 -0.0023 -0.0291 -0.0381 -0.0073 0.0247 724.4061 215.0996 51.1968 27.1147 0.9418 4.4153 28.5274 0.1200 -0.0012 0.0025 -0.1375 0.4361 0.0000
23.7200 0.2346 -0.0024 -0.0289 -0.0379 -0.0073 0.0244 724.6801 215.1199 51.2172 27.1170 0.9423 4.4154 28.5294 0.1200 -0.0012 0.0025 -0.1375 0.4362 0.0000
23.7300 0.2342 -0.0025 -0.0287 -0.0378 -0.0072 0.0241 724.9541 215.1402 51.2376 27.1192 0.9427 4.4155 28.5315 0.1200 -0.0012 0.0025 -0.1376 0.4362 0.0000
23.7400 0.2339 -0.0025 -0.0284 -0.0377 -0.0072 0.0238 725.2281 215.1605 51.2578 27.1215 0.9431 4.4156 28.5335 0.1200 -0.0012 0.0024 -0.1376 0.4362 0.0000
23.7500 0.2335 -0.0026 -0.0282 -0.0376 -0.0071 0.0235 725.5021 215.1807 51.2779 27.1238 0.9435 4.4157 28.5356 0.1200 -0.0011 0.0024 -0.1376 0.4362 0.0000
23.7600 0.2331 -0.0027 -0.0280 -0.0374 -0.0071 0.0232 725.7762 215.2009 51.2979 27.1261 0.9439 4.4159 28.5378 0.1200 -0.0011 0.0024 -0.1376 0.4362 0.0000
23.7700 0.2327 -0.0027 -0.0278 -0.0373 -0.0071 0.0229 726.0503 215.2211 51.3179 27.1285 0.9443 4.4161 28.5399 0.1200 -0.0011 0.0024 -0.1376 0.4362 0.0000
23.7800 0.2323 -0.0028 -0.0276 -0.0372 -0.0070 0.0227 726.3244 215.2412 51.3377 27.1309 0.9447 4.4163 28.5421 0.1200 -0.0011 0.0023 -0.1376 0.4362 0.0000
23.7900 0.2320 -0.0028 -0.0274 -0.0371 -0.0070 0.0224 726.5986 215.2612 51.3574 27.1333 0.9451 4.4166 28.5444 0.1200 -0.0011 0.0023 -0.1376 0.4362 0.0000
23.8000 0.2316 -0.0029 -0.0272 -0.0369 -0.0069 0.0221 726.8728 215.2813 51.3770 27.1357 0.9455 4.4169 28.5466 0.1200 -0.0011 0.0023 -0.1376 0.4362 0.0000
23.8100 0.2312 -0.0030 -0.0269 -0.0368 -0.0069 0.0218 727.1470 215.3013 51.3965 27.1382 0.9459 4.4172 28.5489 0.1200 -0.0011 0.0022 -0.1376 0.4362 0.0000
23.8200 0.2309 -0.0030 -0.0267 -0.0367 -0.0068 0.0216 727.4213 215.3213 51.4159 27.1407 0.9463 4.4175 28.5512 0.1200 -0.0011 0.0022 -0.1376 0.4362 0.0000
23.8300 0.2305 -0.0031 -0.0265 -0.0366 -0.0068 0.0213 727.6956 215.3412 51.4352 27.1432 0.9467 4.4179 28.5536 0.1200 -0.0011 0.0022 -0.1376 0.4362 0.0000
23.8400 0.2301 -0.0031 -0.0263 -0.0364 -0.0067 0.0211 727.9699 215.3611 51.4544 27.1458 0.9470 4.4183 28.5560 0.1200 -0.0010 0.0022 -0.1377 0.4363 0.0000
23.8500 0.2298 -0.0032 -0.0261 -0.0363 -0.0067 0.0208 728.2443 215.3809 51.4736 27.1483 0.9474 4.4187 28.5584 0.1200 -0.0010 0.0021 -0.1377 0.4363 0.0000
23.8600 0.2294 -0.0033 -0.0260 -0.0362 -0.0067 0.0206 728.5187 215.4008 51.4926 27.1509 0.9478 4.4192 28.5608 0.1200 -0.0010 0.0021 -0.1377 0.4363 0.0000
23.8700 0.2290 -0.0033 -0.0258 -0.0360 -0.0066 0.0203 728.7931 215.4205 51.5115 27.1536 0.9481 4.4197 28.5633 0.1200 -0.0010 0.0021 -0.1377 0.4363 0.0000
23.8800 0.2287 -0.0034 -0.0256 -0.0359 -0.0066 0.0201 729.0676 215.4403 51.5303 27.1562 0.9485 4.4202 28.5658 0.1200 -0.0010 0.0021 -0.1377 0.4363 0.0000
23.8900 0.2283 -0.0034 -0.0254 -0.0358 -0.0065 0.0198 729.3421 215.4600 51.5490 27.1589 0.9488 4.4207 28.5683 0.1201 -0.0010 0.0020 -0.1377 0.4363 0.0000
23.9000 0.2280 -0.0035 -0.0252 -0.0356 -0.0065 0.0196 729.6167 215.4797 51.5676 27.1616 0.9491 4.4213 28.5708 0.1201 -0.0010 0.0020 -0.1377 0.4363 0.0000
23.9100 0.2276 -0.0036 -0.0250 -0.0355 -0.0065 0.0193 729.8912 215.4993 51.5861 27.1643 0.9495 4.4219 28.5734 0.1201 -0.0010 0.0020 -0.1378 0.4363 0.0000
23.9200 0.2272 -0.0036 -0.0248 -0.0354 -0.0064 0.0191 730.1658 215.5190 51.6045 27.1671 0.9498 4.4225 28.5760 0.1201 -0.0010 0.0020 -0.1378 0.4363 0.0000
23.9300 0.2269 -0.0037 -0.0247 -0.0352 -0.0064 0.0189 730.4405 215.5385 51.6228 27.1698 0.9501 4.4231 28.5787 0.1201 -0.0010 0.0019 -0.1378 0.4363 0.0000
23.9400 0.2265 -0.0037 -0.0245 -0.0351 -0.0064 0.0187 730.7152 215.5581 51.6410 27.1726 0.9504 4.4238 28.5813 0.1201 -0.0010 0.0019 -0.1378 0.4363 0.0000
23.9500 0.2262 -0.0038 -0.0243 -0.0349 -0.0063 0.0184 730.9899 215.5776 51.6592 27.1755 0.9508 4.4245 28.5840 0.1201 -0.0009 0.0019 -0.1378 0.4363 0.0000
23.9600 0.2258 -0.0038 -0.0242 -0.0348 -0.0063 0.0182 731.2647 215.5971 51.6772 27.1783 0.9511 4.4252 28.5867 0.1202 -0.0009 0.0019 -0.1378 0.4363 0.0000
23.9700 0.2255 -0.0039 -0.0240 -0.0347 -0.0062 0.0180 731.5394 215.6165 51.6951 27.1812 0.9514 4.4259 28.5895 0.1202 -0.0009 0.0018 -0.1379 0.4363 0.0000
23.9800 0.2251 -0.0039 -0.0238 -0.0345 -0.0062 0.0178 731.8143 215.6360 51.7129 27.1841 0.9517 4.4267 28.5922 0.1202 -0.0009 0.0018 -0.1379 0.4363 0.0000
23.9900 0.2248 -0.0040 -0.0237 -0.0344 -0.0062 0.0176 732.0891 215.6554 51.7306 27.1870 0.9520 4.4275 28.5950 0.1202 -0.0009 0.0018 -0.1379 0.4363 0.0000
24.0000 0.2244 -0.0041 -0.0235 -0.0343 -0.0061 0.0174 732.3640 215.6747 51.7482 27.1899 0.9523 4.4283 28.5979 0.1202 -0.0009 0.0018 -0.1379 0.4363 0.0000
24.0100 0.2241 -0.0041 -0.0233 -0.0341 -0.0061 0.0171 732.6390 215.6940 51.7658 27.1929 0.9526 4.4291 28.6007 0.1203 -0.0009 0.0018 -0.1379 0.4364 0.0000
24.0200 0.2238 -0.0042 -0.0232 -0.0340 -0.0061 0.0169 732.9140 215.7133 51.7832 27.1959 0.9529 4.4299 28.6036 0.1203 -0.0009 0.0017 -0.1380 0.4364 0.0000
24.0300 0.2234 -0.0042 -0.0230 -0.0338 -0.0060 0.0167 733.1890 215.7326 51.8005 27.1989 0.9532 4.4308 28.6065 0.1203 -0.0009 0.0017 -0.1380 0.4364 0.0000
24.0400 0.2231 -0.0043 -0.0229 -0.0337 -0.0060 0.0165 733.4640 215.7518 51.8178 27.2019 0.9534 4.4317 28.6094 0.1203 -0.0009 0.0017 -0.1380 0.4364 0.0000
24.0500 0.2227 -0.0043 -0.0227 -0.0335 -0.0060 0.0163 733.7391 215.7710 51.8349 27.2050 0.9537 4.4326 28.6123 0.1203 -0.0009 0.0017 -0.1380 0.4364 0.0000
24.0600 0.2224 -0.0044 -0.0226 -0.0334 -0.0059 0.0161 734.0143 215.7902 51.8519 27.2081 0.9540 4.4335 28.6153 0.1204 -0.0009 0.0016 -0.1381 0.4364 0.0000
24.0700 0.2221 -0.0044 -0.0224 -0.0333 -0.0059 0.0160 734.2894 215.8093 51.8689 27.2112 0.9542 4.4344 28.6183 0.1204 -0.0008 0.0016 -0.1381 0.4364 0.0000
24.0800 0.2217 -0.0045 -0.0223 -0.0331 -0.0059 0.0158 734.5647 215.8284 51.8857 27.2143 0.9545 4.4354 28.6213 0.1204 -0.0008 0.0016 -0.1381 0.4364 0.0000
24.0900 0.2214 -0.0045 -0.0221 -0.0330 -0.0058 0.0156 734.8399 215.8475 51.9025 27.2174 0.9548 4.4364 28.6244 0.1204 -0.0008 0.0016 -0.1381 0.4364 0.0000
24.1000 0.2211 -0.0046 -0.0220 -0.0328 -0.0058 0.0154 735.1152 215.8665 51.9192 27.2206 0.9550 4.4374 28.6274 0.1205 -0.0008 0.0016 -0.1381 0.4364 0.0000
24.1100 0.2208 -0.0046 -0.0218 -0.0327 -0.0058 0.0152 735.3905 215.8856 51.9357 27.2238 0.9553 4.4384 28.6305 0.1205 -0.0008 0.0016 -0.1382 0.4364 0.0000
24.1200 0.2204 -0.0047 -0.0217 -0.0325 -0.0057 0.0150 735.6659 215.9046 51.9522 27.2270 0.9555 4.4394 28.6336 0.1205 -0.0008 0.0015 -0.1382 0.4364 0.0000
24.1300 0.2201 -0.0047 -0.0216 -0.0324 -0.0057 0.0149 735.9413 215.9235 51.9686 27.2302 0.9558 4.4405 28.6368 0.1205 -0.0008 0.0015 -0.1382 0.4364 0.0000
24.1400 0.2198 -0.0048 -0.0214 -0.0322 -0.0057 0.0147 736.2167 215.9424 51.9848 27.2334 0.9560 4.4416 28.6399 0.1206 -0.0008 0.0015 -0.1382 0.4364 0.0000
24.1500 0.2195 -0.0048 -0.0213 -0.0321 -0.0057 0.0145 736.4922 215.9613 52.0010 27.2367 0.9563 4.4427 28.6431 0.1206 -0.0008 0.0015 -0.1383 0.4364 0.0000
24.1600 0.2191 -0.0049 -0.0211 -0.0319 -0.0056 0.0143 736.7678 215.9802 52.0171 27.2400 0.9565 4.4438 28.6463 0.1206 -0.0008 0.0015 -0.1383 0.4364 0.0000
24.1700 0.2188 -0.0049 -0.0210 -0.0318 -0.0056 0.0142 737.0433 215.9991 52.0331 27.2433 0.9567 4.4449 28.6496 0.1206 -0.0008 0.0014 -0.1383 0.4364 0.0000
24.1800 0.2185 -0.0050 -0.0209 -0.0317 -0.0056 0.0140 737.3189 216.0179 52.0490 27.2466 0.9570 4.4460 28.6528 0.1207 -0.0008 0.0014 -0.1383 0.4364 0.0000
24.1900 0.2182 -0.0050 -0.0208 -0.0315 -0.0055 0.0138 737.5946 216.0367 52.0648 27.2499 0.9572 4.4472 28.6561 0.1207 -0.0008 0.0014 -0.1384 0.4364 0.0000
24.2000 0.2179 -0.0051 -0.0206 -0.0314 -0.0055 0.0137 737.8703 216.0554 52.0806 27.2533 0.9574 4.4484 28.6594 0.1207 -0.0008 0.0014 -0.1384 0.4364 0.0000
24.2100 0.2175 -0.0051 -0.0205 -0.0312 -0.0055 0.0135 738.1460 216.0742 52.0962 27.2567 0.9576 4.4495 28.6627 0.1208 -0.0007 0.0014 -0.1384 0.4364 0.0000
24.2200 0.2172 -0.0052 -0.0204 -0.0311 -0.0055 0.0134 738.4218 216.0929 52.1117 27.2600 0.9578 4.4507 28.6660 0.1208 -0.0007 0.0014 -0.1385 0.4364 0.0000
24.2300 0.2169 -0.0052 -0.0203 -0.0309 -0.0054 0.0132 738.6976 216.1115 52.1272 27.2635 0.9581 4.4520 28.6694 0.1208 -0.0007 0.0013 -0.1385 0.4364 0.0000
24.2400 0.2166 -0.0053 -0.0201 -0.0308 -0.0054 0.0130 738.9734 216.1302 52.1425 27.2669 0.9583 4.4532 28.6727 0.1209 -0.0007 0.0013 -0.1385 0.4364 0.0000
24.2500 0.2163 -0.0053 -0.0200 -0.0306 -0.0054 0.0129 739.2493 216.1488 52.1578 27.2703 0.9585 4.4544 28.6761 0.1209 -0.0007 0.0013 -0.1385 0.4364 0.0000
24.2600 0.2160 -0.0054 -0.0199 -0.0305 -0.0054 0.0127 739.5253 216.1674 52.1730 27.2738 0.9587 4.4557 28.6795 0.1209 -0.0007 0.0013 -0.1386 0.4364 0.0000
24.2700 0.2157 -0.0054 -0.0198 -0.0303 -0.0053 0.0126 739.8013 216.1860 52.1881 27.2773 0.9589 4.4570 28.6830 0.1209 -0.0007 0.0013 -0.1386 0.4364 0.0000
